Tibialis Anterior (%),Gastrocnemius Medialis (%),Gastrocnemius Lateralis (%),Rectus Femoris (%),Vastus Lateralis (%),Vastus Medialis (%),Semitendinosus (%),Bicep Femoris (%)
-0.9983253661651752,1.0899220655131956,1.231806261503923,1.1110055642685384,0.7053349675714558,0.7366151107778308,0.20025570119012553,-0.05925300501286322
-0.8793459540686897,1.105710864904094,1.2488679443402502,1.1649721592540174,0.7485086901164687,0.7689766942246417,0.22325985525963066,-0.008089032396642007
-0.7606111961928185,1.1215087098441492,1.265992291928359,1.2190499402041468,0.7916688332399227,0.8013787936486988,0.24625989796678563,0.042849429741617366
-0.6421646107416993,1.1373125592814524,1.2831760120412414,1.273221279602523,0.8348067974518404,0.8338151907659489,0.2692471147404217,0.09354351616686896
-0.5240494386345158,1.1531193712760452,1.3004157845909345,1.3274685663431267,0.877913983471905,0.8662796470475291,0.2922128037399499,0.14397458616797046
-0.4063086045153811,1.16892610453438,1.3177082631332078,1.381774223464927,0.9209817961233636,0.898765906433644,0.31514828402278466,0.19412424106761203
-0.2889846783395373,1.1847297199441198,1.3350500763937807,1.4361207257500486,0.9640016482227324,0.9312676980583989,0.33804490368068424,0.24397434139463728
-0.17211983761051303,1.2005271821072143,1.3524378298145423,1.490490617138911,1.006964964461236,0.9637787389829442,0.3608940479290689,0.2935070236890966
-0.05575583033756663,1.2163154608692301,1.369868107118314,1.5448665279199119,1.0498631852740514,0.996292736934377,0.3836871471341834,0.3427047169115668
0.06006606122272126,1.2320915328430107,1.3873374718907774,1.5992311916562623,1.0926877706935545,1.028803393047968,0.40641568476371237,0.3915501584289674
0.1753050559819824,1.2478523829247856,1.404842469178233,1.6535674618178442,1.135430204182917,1.0613044046103965,0.4290712052470714,0.4400264095494965
0.28992090853850755,1.2635950058009195,1.4223796270998652,1.7078583280903954,1.1780819964465454,1.093789467801804,0.4516453217321601,0.4881168705797312
0.40387394274805455,1.2793164074435113,1.439945458473168,1.7620869323372363,1.2206346892140651,1.1262522804345714,0.4741297237259724,0.5358052953777896
0.5171250842994292,1.2950136065930875,1.457536462451204,1.816236584190287,1.2630798589947547,1.1586865446868044,0.49651618460715724,0.5830758053779891
0.6296358922502003,1.3106836362266556,1.4751491261703829,1.870290776247811,1.3054091207995135,1.1910859698285878,0.518796568999294,0.6299129030644802
0.7413685894817418,1.3263235450093935,1.4927799264074924,1.9242331988567385,1.3476141318275783,1.2234442749391425,0.5409628399941937,0.6763014848733752
0.8522860920378766,1.3419303987282787,1.5104253312447702,1.978047754457776,1.3896865951153001,1.2557551916131156,0.5630070662149437,0.7222268535044578
0.9623520373173199,1.3575012817059804,1.5280818017418192,2.0317185714720023,1.431618263144419,1.2880124666542843,0.5849214287087436,0.7676747296248279
1.0715308110961423,1.3730332981933384,1.545745793613183,2.085230017708451,1.4734009414073967,1.3202098647550204,0.6066982276598063,0.8126312629482407
1.1797875733622498,1.388523573738773,1.5634137589103803,2.138566713273527,1.5150264919275156,1.3523411711598696,0.6283298889127111,0.8570830426758753
1.2870882829493684,1.4039692565329986,1.5810821477071801,2.1917135429648305,1.5564868367315818,1.3844001943116133,0.6498089702965836,0.9010171072867075
1.393399720963188,1.4193675187274981,1.5987474097868895,2.2446556681334306,1.5977739612731925,1.4163807684781942,0.6711281677404815,0.9444209536682713
1.4986895129966584,1.4347155577253436,1.6164059963304074,2.297378537999515,1.6388799178046138,1.4482767563588943,0.6922803211705814,0.9872825455810438
1.6029261501345,1.450010597443097,1.6340543616037877,2.349867900406828,1.6797968286953815,1.4800820516682007,0.7132584201803205,1.029590321451777
1.7060790087488171,1.4652498895426858,1.6516889646440465,2.4021098120020508,1.7205168896958098,1.5117905816957895,0.7340556094655205,1.0713332014927266
1.8081183690889375,1.4804307146323106,1.6693062709419293,2.454090647826581,1.7610323731437154,1.543396309841107,0.7546651940175299,1.112500594144961
1.9090154326698805,1.4955503834355726,1.6869027541203607,2.5057971103096817,1.8013356311127764,1.574893238121042,0.7750806440685485,1.1530824018448833
2.0087423384654852,1.5106062379281266,1.7044748976073003,2.5572162376531953,1.8414190985011272,1.6062754096492253,0.7952955997846178,1.1930690261138226
2.1072721779139396,1.525595652441258,1.7220191963017564,2.6083354115990427,1.8812752960589307,1.6375369110855293,0.8153038757031964,1.2324513719710875
2.204579008744957,1.5405160347318547,1.7395321582317687,2.6591423645721153,1.9208968333538219,1.6686718750543945,0.835099464913524,1.271220851671501
2.3006378676388732,1.5553648270183342,1.7570103062031943,2.7096251861931058,1.9602764116732292,1.6996744825306473,0.8546765429788137,1.309369387769458
2.3954247817285905,1.5701395069821895,1.7744501794382184,2.759772329157838,1.9994068268626788,1.730538965191495,0.874029471599822,1.3468894155129312
2.4889167789558604,1.5848375887349158,1.7918483352025283,2.809572614481093,2.0382809720992654,1.7612596077334306,0.8931528020197461,1.3837738845722425
2.5810918972938124,1.599456623750129,1.8092013504201494,2.8590152361035868,2.076891840599538,1.7918307501527924,0.9120412781708616,1.420016260109589
2.671929192848115,1.613994201760704,1.8265058232749654,2.9080897648609283,2.1152325282610787,1.822246789988775,0.9306898395638346,1.4556105231962775
2.761408746849699,1.6284479516207577,1.8437583747979351,2.95678615181348,2.1532962362370798,1.8525021845277192,0.9490936239211116,1.4905511705854981
2.849511671552743,1.6428155421323507,1.860955650439033,3.0050947309365506,2.191076273443238,1.882591452967524,0.9672479695561808,1.5248332138491205
2.9362201150523703,1.6570946828368454,1.8780943216229256,3.053006221171496,2.2285660589963054,1.9125091785410397,0.9851484175008057,1.5584521778874496
3.021517265036954,1.6712831247709916,1.8951710872873964,3.100511727840156,2.2657591245836604,1.9422500105973555,1.0027907133826406,1.59140409882129
3.1053873514901795,1.6853786611878938,1.9121826754035613,3.1476027434272607,2.3026491167632757,1.9718086666399288,1.0201708090559598,1.6236855212766137
3.1878156483583804,1.6993791282430795,1.9291258444769028,3.1942711477382075,2.3392297991935274,2.001179934320557,1.03728486398866,1.655293495073894
3.2687884741995603,1.7132824056458873,1.9459973850281698,3.2405092074429773,2.375495054792341,2.030358673388183,1.054129246409209,1.6862255713366063
3.348293191832076,1.7270864172763905,1.9627941210531616,3.2863095750208835,2.4114388878253536,2.0593398175915083,1.0707005342178035,1.7164797980359414
3.426318207002698,1.740789131768038,1.9795129114604366,3.331665287124271,2.447055425922901,2.0881183765343536,1.086995515666527,1.7460547149908852
3.502852966095343,1.7543885630561913,1.996150651486027,3.3765697623811994,2.482338922025771,2.116689437482697,1.1030111898135762,1.7749493483441607
3.5778879529024836,1.7678827708927167,2.0127042740843626,3.4210167986575146,2.517283756259759,2.1450481671223645,1.11874476675668,1.803163204535117
3.651414684481239,1.7812698613267848,2.029170751294688,3.465000569798424,2.551884437739071,2.173189813266403,1.1341936676506843,1.8306962637907396
3.7234257061154534,1.7945479871520134,2.045547095582348,3.5085156218693845,2.5861356062986003,2.20110970651124,1.149355524514024,1.8575489731558352
3.7939145854042557,1.8077153483201036,2.0618303611543305,3.551556868916369,2.6200320341550585,2.2288032618408864,1.1642281798285414,1.8837222390833037
3.86287590549672,1.8207701923211208,2.0780176452484462,3.5941195882658414,2.653568627496904,2.2562659801785725,1.1788096859368866,1.9092174196052585
3.9303052574911352,1.8337108145305778,2.0941060893955,3.636199415385135,2.6867404280029583,2.2834934498853463,1.1930983042417198,1.9340363161054777
3.9961992320160253,1.8465355585234828,2.1100928806537698,3.6777923383238873,2.7195426142895562,2.3104813482052684,1.2070925042111058,1.9581811647132468
4.060555410008372,1.859242816355509,2.125975252815105,3.7188946917571535,2.7519705032860493,2.3372254426568233,1.2207909621947273,1.9816546273382016
4.123372352702799,1.871831028811482,2.1417504875819575,3.75950315065086,2.78401955153848,2.3637215923701835,1.2341925600557735,2.004459782365546
4.184649590844201,1.8842986856214747,2.1574159157146715,3.7996147235706372,2.8156853564412545,2.38996574936989,1.2472963836235258,2.0266001150310107
4.244387613135776,1.8966443256448973,2.1729689181483667,3.839226745655632,2.8469636573966555,2.4159539598025095,1.260101720971745,2.048079507495038
4.302587853934601,1.908866537023033,2.1884069270787974,3.8783368712793336,2.877850336902036,2.4416823651087722,1.272608060527944,2.068902228635796
4.359252680207333,1.9209639573005248,2.2037274270165197,3.916943066419358,2.9083414215645367,2.4671472031397057,1.284815089018513,2.089072923580708
4.414385377758768,1.9329352735162713,2.2189279558086863,3.9550436007574836,2.9384330830431566,2.4923448092162968,1.2967226892545434,2.1085966029961973
4.467990136746025,1.944779222264192,2.2340061056277465,3.9926370395304853,2.9681216389179976,2.517271617132278,1.3083309377631622,2.1274786321551717
4.520072036490878,1.9564945897242825,2.2489595239262714,4.029722235152125,2.9974035534865715,2.5419241600997253,1.3196401022692756,2.1457247198013643
4.570637029602613,1.9680802116643894,2.2637859143571295,4.06629831862721,3.0262754384871626,2.566299071637234,1.3306506390327058,2.1633409068291556
4.619691925423668,1.9795349734131127,2.2784830376582055,4.1023646907795,3.05473405374946,2.590393086400531,1.3413631900457363,2.1803335547972034
4.6672443728107025,1.990857809804232,2.2930487125008874,4.137921013315717,3.08277630777285,2.6142030409555153,1.351778580096053,2.1967093342939448
4.713302842264717,2.0020477050930054,2.307480816301617,4.172967199747603,3.1103992582329294,2.6377258744938774,1.361897813700055,2.212475213172884
4.757876607425138,2.0131036928446444,2.3217772859958683,4.207503406193285,3.137600112416819,2.660958629491691,1.3717220719116419,2.2276384446755273
4.800975725944507,2.0240248557952483,2.335936118774068,4.2415300220782886,3.1643762275878338,2.683898452311549,1.3812527090117201,2.242206555460049
4.842611019762007,2.0348103256854713,2.349955372779004,4.275047660755558,3.190725111280017,2.7065425937489342,1.390491249083802,2.256187333554263
4.882794054795784,2.045459283067231,2.363833167764311,4.30805715006277,3.216644421522954,2.728888409523536,1.3994393824810913,2.26958881625175
4.921537120075552,2.0559709570838063,2.377567685713617,4.340559522834272,3.2421319669973245,2.7509333607162225,1.4080989621904545,2.2824192779697805
4.958853206338405,2.066344625223736,2.391157171419931,4.372556007384568,3.267185707121672,2.7726750141523255,1.4164720000985775,2.2946872180868763
4.994755984112191,2.076579613048986,2.4045999330248957,4.404048017980542,3.291803752071018,2.794111042731898,1.424560663165431,2.3064013487767743
5.029259781311947,2.086675293897924,2.4178943425175436,4.4350371453202815,3.3159843627280083,2.8152392257076277,1.4323672695099736,2.317570582854476
5.062379560375561,2.0966310885636887,2.431038836192197,4.465525147037069,3.3397259505673835,2.836057448911212,1.439894284412976,2.3282040216491864
5.094130894964425,2.106446464948542,2.4440319150651195,4.4955139382474245,3.363027077474591,2.8565637049291728,1.4471443162418849,2.3383109429183557
5.124529946253478,2.1161209376947756,2.4568721452495104,4.525005582162304,3.385886455499422,2.8767560932292624,1.4541201123026322,2.3479007888169594
5.153593438833548,2.125654067792703,2.4695581582884243,4.55400228078042,3.4083029465456485,2.896632820238756,1.4608245546231566,2.3569831539362434
5.181338636247965,2.135045462166226,2.4820886514452773,4.582506365681909,3.430275561997678,2.9161921993759647,1.4672606556731156,2.365567773426173
5.207783316185475,2.1442947732364668,2.4944623879517085,4.610520288939394,3.4518034622853433,2.9354326510362716,1.4734315540239444,2.373664511215398
5.232945745352276,2.1534016984639432,2.5066781972127035,4.63804661416196,3.472885956388002,2.9543527025339746,1.4793405099531207,2.3812833483418077
5.256844654047066,2.162365979869822,2.5187349749690036,4.665088007686091,3.4935225012790903,2.972950988001119,1.484990900996337,2.3884343714059013
5.279499210464374,2.171187403536827,2.5306316834169205,4.691647229926062,3.5137127013122402,2.99122624824446,1.4903862174513398,2.395127761158472
5.300928994752919,2.1798657990904307,2.5423673512856895,4.717727126894696,3.5334563075500007,3.009177330561645,1.495530057837421,2.4013737812335787
5.321153972857622,2.1884010391610262,2.5539410738725157,4.743330621903833,3.5527532170361398,3.0268031885176634,1.5004261243148647,2.407182767037435
5.340194470175893,2.1967930388277828,2.5653520130354632,4.768460707452138,3.5716034720124163,3.044102881682589,1.505078218068958,2.412565114803591
5.358071145060517,2.205041755044982,2.5765993971443586,4.79312043730603,3.5900072590806418,3.061075575331534,1.5094902346635104,2.4175312708244685
5.374804962203051,2.2131471860517173,2.5876825209899166,4.81731291877753,3.607964908310774,3.077720540107734,1.513666159369107,2.4220917208686523
5.390417165933278,2.2211093707659106,2.5986007456513605,4.841041305200877,3.625476892295739,3.094037151649526,1.5176100624715718,2.4262569797925435
5.404929253472571,2.2289283881636495,2.6093534983228763,4.864308788607999,3.642543825153599,3.1100248901819767,1.5213260945662677,2.4300375813541764
5.4183629481818345,2.236604356644876,2.619940272099347,4.887118592601814,3.659166461477696,3.125683340073842,1.5248184818439676,2.433444068236377
5.430740172847407,2.244137433386407,2.6303606257218575,4.909473965426184,3.675345695235382,3.141012189360563,1.5280915213740758,2.4364869822859085
5.442083023050028,2.2515278136832415,2.6406141832835477,4.93137817323219,3.6910825586159928,3.15601122923405,1.531149576390986,2.439176854974617
5.452413740662355,2.258775730279065,2.650700633896388,4.952834493541692,3.7063782208288423,3.1706803535000474,1.533997071589312,2.4415241980877687
5.46175468751969,2.2658814526868105,2.6606197313194846,4.97384620891007,3.7212339868521176,3.1850195580039675,1.5366384884336595,2.4435394946439253
5.4701283193071175,2.2728452865001034,2.6703712935495107,4.994416600789881,3.735651296133719,3.1990289400260767,1.5390783604885538,2.445233190050177
5.47755715970483,2.2796675726964177,2.679955202373846,5.01454894359628,3.7496317212452133,3.2127086976469834,1.5413212687741422,2.446615683496395
5.484063774832244,2.286348686932746,2.689371402886969,5.034246498974172,3.7631769664901698,3.22605912908439,1.5433718371532243,2.4476973195921796
5.48967074803046,2.2928890388345944,2.698619902970673,5.053512510266971,3.776288866468213,3.2390806320021004,1.5452347277550562,2.4484883802502404
5.494400655021677,2.299289071279088,2.7077007727386486,5.0723501971875296,3.7889693845961046,3.2517737027922973,1.5469146364411621,2.4489990768198955
5.498276039483219,2.305549259672969,2.7166141439459843,5.090762750692966,3.8012206115871563,3.264138935832115,1.5484162883181019,2.449239542474292
5.501319389073164,2.3116701112262446,2.7253602093641507,5.108753328066248,3.813044763890249,3.2761770227155576,1.5497444333018442,2.4492198248546546
5.503553111944242,2.317652164222243,2.7339392221220518,5.126325048208113,3.8244441820897297,3.2878887514618165,1.5509038417381842,2.4489498789744815
5.504999513782721,2.3234959872848266,2.742351495013741,5.143480987143312,3.83542132926744,3.299275005701019,1.551899300083634,2.4484395603863045
5.505680775409201,2.32920217864348,2.750597399773407,5.160224173745455,3.8459787893281354,3.3103367638384276,1.552735606651388,2.447698618613441
5.505618930977993,2.3347713653969895,2.7586773663183,5.1765575856849235,3.85611926528953,3.321075098198055,1.553417567427121,2.446736690848918
5.504835846811064,2.3402042027763774,2.7665918819603377,5.192484145604441,3.8658455775381455,3.3314911741466404,1.5539499919594029,2.4455632959232534
5.5033532009008495,2.345501373407736,2.7743414905872217,5.208006717526601,3.875160662052072,3.341586249198869,1.5543376893293437,2.444187828542006
5.501192463114005,2.350663586575547,2.781926791814009,5.223128103496846,3.8840675685916843,3.351361672104675,1.5545854642038581,2.4426195537931434
5.498374876125562,2.3556915774870424,2.7893484401061506,5.237851040463979,3.892569458859226,3.3608188819194105,1.5546981129767503,2.440867601923457
5.494921437110334,2.3605861065380913,2.796607143875134,5.252178197398635,3.90066960462814,3.369959407057625,1.5546804200016462,2.438940963382701
5.490852880215766,2.3653479585810784,2.8037036645478572,5.266112172648892,3.9083713858429228,3.3787848643311276,1.5545371539206674,2.436848484133895
5.486189659837691,2.3699779421951552,2.810638815610922,5.279655491532123,3.915678288690241,3.387296957971988,1.554273064092568,2.4345988612282885
5.480951934717516,2.374476888959212,2.817413461630976,5.292810604163675,3.922593903642027,3.395497478641088,1.5538928771238247,2.43220063864349
5.475159552876425,2.378845652727836,2.8240285172522785,5.305579883525539,3.929121923471255,3.403388302422787,1.5534012935058115,2.4296622033832147
5.46883203739938,2.3830851089104987,2.830484946172632,5.3179656237803785,3.9352661412410472,3.410971389806225,1.5528029843606568,2.426991781836884
5.461988573079215,2.387196153754222,2.8367837600988435,5.329970038837774,3.9410304482678087,3.4182487846537275,1.5521025882977486,2.4241974363969807
5.454647993929377,2.391179703630006,2.8429260176828963,5.341595261180475,3.946418832058999,3.4252226131566905,1.551304708382125,2.4212870623316043
5.4468287715730295,2.3950366943233723,2.8489128234400183,5.352843340959482,3.951435374226147,3.4318950827792625,1.5504139092152436,2.4182683849092648
5.438549004515998,2.3987680803294285,2.854745326649855,5.363716245367427,3.956084248373716,3.438268481190053,1.5494347141278424,2.415148956772698
5.429826408310657,2.402374834152852,2.860424720241952,5.374215858299416,3.960369717964428,3.444345175182067,1.5483716024838283,2.411936155558375
5.420678306616777,2.405857945613221,2.8659522396667225,5.384343980309184,3.9642961341617773,3.4501276095809588,1.5472290070934147,2.408637181758529
5.411121623163554,2.4092184211560683,2.8713291617530494,5.394102328866325,3.9678679336505644,3.4556183061417,1.5460113117330874,2.405259056822743
5.4011728746147725,2.412457283170029,2.876556803553614,5.403492538918025,3.9710896364363353,3.4608198624336817,1.544722848769507,2.401808621496385
5.390848164336513,2.4155755693103806,2.881636521179012,5.412516163756232,3.9739658436246508,3.4657349507142396,1.5433678968841877,2.398292534393467
5.380163177064199,2.4185743318292223,2.8865697086216673,5.421174676188851,3.9765012351810554,3.4703663167905345,1.5419506788957056,2.39471727080182
5.369133174462997,2.4214546369124856,2.891357796570503,5.429469470011807,3.978700567672602,3.4747167788696234,1.5404753596763054,2.3910891217189874
5.357772991572649,2.424217564023946,2.8960022512172814,5.437401861777515,3.980568671991739,3.4787892263965112,1.5389460441601082,2.3874141931177473
5.3460970341248215,2.426864205256399,2.900504573055474,5.444973092854334,3.9821104510634213,3.482586618879867,1.5373667754406457,2.383698405440497
5.334119276718006,2.4293956646901504,2.90486629567257,5.452184331770303,3.9833308775362832,3.486111984705044,1.5357415329560424,2.379947493321683
5.321853261831968,2.431813057758938,2.9090889845367274,5.459036676833066,3.9842349914587913,3.4893684199339976,1.534074230760567,2.3761670055369937
5.309312099660975,2.4341175106233996,2.913174235778669,5.4655311590171385,3.984827897941212,3.4923590870916557,1.532368715881463,2.3723623051773277
5.296508468742995,2.4363101595521433,2.9171236749697287,5.471668745109457,3.985114764804247,3.4950872139382825,1.5306287667599796,2.3685385700447545
5.283454617360942,2.438392150310504,2.92093895589693,5.477450341104208,3.9851008202150346,3.4975560922274647,1.528858091775468,2.364700793267002
5.270162365691893,2.440364637557074,2.924621759335996,5.482876795837152,3.9847913503111982,3.4997690764494007,1.527060327851365,2.3608537841266526
5.256643108680051,2.4422287842481194,2.928173791823221,5.487948904848115,3.9841916968135194,3.501729582559295,1.5252390391419062,2.357002169101139
5.242907819609015,2.44398576105001,2.9315967844271857,5.4926674144583885,3.9833072546277952,3.503441086690657,1.5233977157985308,2.3531503931096163
5.228967054348715,2.4456367457597588,2.9348924915213086,5.497033026048322,3.9821434694364366,3.504907123853376,1.521539772815079,2.349302720962659
5.214830956252893,2.4471829227337034,2.9380626895582913,5.501046400520019,3.9807058352804465,3.5061312866164727,1.5196685489510418,2.34546323901042
5.200509261684276,2.4486254823243674,2.9411091758474734,5.5047081629306716,3.9789998921325225,3.5071172237754515,1.5177873057323108,2.341635856984709
5.186011306146399,2.4499656203254885,2.9440337673361334,5.508018907282934,3.9770312234621406,3.507868639004287,1.5158992265290665,2.337824310030511
5.171346031002698,2.4512045374253213,2.9468382993957722,5.51097920145885,3.9748054537935196,3.5083892894920177,1.514007415710684,2.3340321609225367
5.156521990764334,2.452343438668356,2.9495246246144515,5.513589592282976,3.9723282462573453,3.508682984563998,1.5121148978776022,2.3302628024621725
5.1415473609279285,2.4533835329256823,2.9520946115962845,5.515850610699051,3.969605300137164,3.5087535842878195,1.510224617169967,2.3265194600495076
5.126429946342919,2.45432603237425,2.9545501437692114,5.517762777043977,3.966642348411343,3.5086049980638974,1.508339436652467,2.3228051944241117
5.1111771900861775,2.4551721519852467,2.956893118202231,5.519326606403376,3.9634451552915193,3.5082411832007456,1.506462137774408,2.3191229045670876
5.095796182819118,2.455923109021831,2.9591254444332296,5.520542614034544,3.960019513758483,3.5076661434749314,1.5045954199038885,2.315475330755793
5.0802936726001455,2.456580122546415,2.961249043308566,5.521411320844454,3.956371243096347,3.5068839276757737,1.5027418999349256,2.3118650577616493
5.064676075122993,2.4571444129376756,2.963265845835538,5.521933258912213,3.9525061864258477,3.5058986281349265,1.5009041119663513,2.3082945181807513
5.048949484349614,2.4576172014174564,2.9651777920487947,5.52210897704691,3.9484302082375335,3.50471437924112,1.4990845070510712,2.3047659958868483
5.033119683505075,2.457999709587693,2.9669868298917246,5.521939046373156,3.9441491919255673,3.503335355940472,1.4972854530139559,2.3012816295965477
5.017192156401562,2.458293158977502,2.968694914113748,5.5214240659376035,3.939669037322907,3.50176577222294,1.495509234336345,2.297843416537373
5.001172099059251,2.4584987706005212,2.9703040051844365,5.520564668330623,3.9349956582386505,3.5000098795955967,1.4937580521049911,2.2944532162101834
4.985064431593425,2.45861776452255,2.971816068225348,5.5193615253181,3.9301349799984995,3.4980719655434345,1.4920340240232413,2.2911127542380183
4.968873810339233,2.458651359439466,2.9732330719604683,5.517815353479339,3.9250929369893592,3.495956351978376,1.4903391844823037,2.287823626293349
4.952604640187682,2.458600772265339,2.9745569876861246,5.515926919847591,3.919875470209148,3.4936673936771223,1.4886754846906043,2.284587302095118
4.936261087108413,2.4584672177305955,2.975789788261216,5.51369704754972,3.914488524822928,3.491209476708483,1.487044792859357,2.281405129466247
4.919847090836429,2.458251907990055,2.9769334471185096,5.511126621440823,3.908938047726459,3.488587016850792,1.485448894442535,2.2782783384418424
4.903366377700778,2.457956052240653,2.9779899372977012,5.508216593729092,3.9032299851182484,3.485804458000044,1.4838894924294659,2.2752080454182226
4.8868224735730905,2.4575808563486667,2.978961230500832,5.504967989585854,3.897370280081163,3.482866270569332,1.4823682076885796,2.2721952573331547
4.870218716913232,2.4571275224862767,2.9798492961705647,5.501381912735316,3.891364870174653,3.47977694988015,1.4808865793615396,2.269240875868214
4.853558271888771,2.4565972487772942,2.9806561005917187,5.497459551017521,3.885219685038621,3.476541014546076,1.4794460653078267,2.266345701664619
4.836844141544542,2.455991228951948,2.98138360601637,5.493202181916173,3.878940644009929,3.4731630048493214,1.4780480426005242,2.2635104385439204
4.820079180997912,2.455310652010689,2.982033769812753,5.488611178040846,3.872533653752553,3.4696474811105666,1.476693808074332,2.2607356977245496
4.80326611063398,2.4545567018970518,2.982608543638114,5.48368801255091,3.866004605902345,3.465999022052419,1.475384578926915,2.2580220020246116
4.78640752927321,2.4537305571796897,2.9831098726356444,5.478434264506727,3.859359374727446,3.462222223156723,1.4741214933747226,2.2553697900406613
4.76950592728259,2.4528333907437014,2.983539694655549,5.472851624132466,3.852603814805396,3.458321695015841,1.4729056113643317,2.252779420291712
4.752563699600801,2.4518663694913654,2.9838999395002683,5.4669418979748885,3.8457437587180623,3.454302061677978,1.4717379153400982,2.2502511753174765
4.735583158648257,2.4508306540523406,2.984192528193847,5.460707013943749,3.83878501476557,3.450167958986637,1.4706193110683414,2.2477852657199615
4.7185665470936415,2.4497273985033554,2.9844193722754144,5.454149026221603,3.831733364700564,3.445924032914366,1.469550628517617,2.245381834138094
4.70151605044927,2.448557750097352,2.984582373116685,5.447270120032856,3.824594561484229,3.441574937891071,1.468532622793994,2.2430409591458838
4.68443380946784,2.4473228490019974,2.9846834212633655,5.440072616262847,3.817374327065601,3.4371253351272446,1.4675659751298051,2.240762659065294
4.667321932312876,2.446023828047468,2.9847243958002476,5.43255897591748,3.810078350185638,3.432579890932524,1.4666512939242502,2.2385468956851504
4.650182506474814,2.444661812483391,2.9847071637397096,5.424731804412952,3.8027122842075247,3.4279432750299694,1.4657891158344853,2.2363935778772213
4.633017610404222,2.4432379197448904,2.9846335794332757,5.416593855684148,3.7952817449745173,3.423220158866484,1.4649799069163323,2.2343025651002595
4.615829324833701,2.4417532592277515,2.984505484005842,5.408148036099729,3.7877923086966407,3.4184152139197677,1.4642240638141295,2.232273670782545
4.598619743760128,2.4402089320727818,2.984324704812192,5.399397408171406,3.7802495098673923,3.413533110002234,1.4635219149993155,2.2303066655732255
4.581390985059093,2.4386060309594804,2.9840930549154376,5.39034519404464,3.7726588392115126,3.4085785135623707,1.4628737220571186,2.228401280452651
4.564145200703789,2.436945639909125,2.9838123325870844,5.380994778757676,3.765025741664787,3.4035560859841496,1.462279681020457,2.226557209692246
4.546884586561706,2.4352288340974133,2.983484320828456,5.371349713255615,3.7573556143866864,3.3984704818853246,1.461739923750067,2.224774113655694
4.529611391744734,2.4334566796768007,2.983110786913266,5.361413717145794,3.7496538048065826,3.393326347415647,1.4612545193599962,2.223051621435267
4.512327927492026,2.4316302336087534,2.982693481951167,5.351190681179973,3.7419256087041353,3.3881283185562374,1.4608234756877612,2.2213893333197685
4.495036575569528,2.4297505435061586,2.982234140472096,5.340684669448048,3.734176268324392,3.3828810194214167,1.4604467408084882,2.2197868230930182
4.477739796174843,2.4278186474861747,2.9817344800312076,5.329899921267893,3.726410970528086,3.3775890605643495,1.4601242045922183,2.2182436401637213
4.460440135340224,2.4258355740338025,2.9811962008341073,5.318840852757003,3.71863484497761,3.372257037287829,1.4598557003033288,2.216759311528799
4.443140231829364,2.423802341876471,2.9806209853820143,5.307512058073495,3.7108529623591293,3.3668895279614905,1.459641006240733,2.2153333435730076
4.425842823525223,2.421719959869915,2.9800104981364246,5.29591831031659,3.7030703326412757,3.361491092346717,1.4594798474171156,2.213965223707904
4.408550753306471,2.4195894268956053,2.979366385202787,5.284064562078757,3.69529190337081,3.3560662699304182,1.4593718972749672,2.212654421852914
4.3912669744099,2.417411731769976,2.9786902740327066,5.2719559456431195,3.687522558005585,3.3506195782688097,1.4593167794366801,2.211400391760518
4.373994555275322,2.415187853165689,2.9779837731442154,5.259597772820142,3.679767114285145,3.345155511342207,1.459314069485599,2.2102025721867324
4.3567366838687205,2.412918759545129,2.977248471859638,5.246995534417722,3.672030322639318,3.3396785379218206,1.4593632967746373,2.2090603879073667
4.33949667147887,2.4106054091063274,2.9764859400606416,5.23415489933974,3.664316864635189,3.334193099949402,1.4594639462588255,2.207973250580272
4.322277955982434,2.408248749741495,2.9756977279600876,5.221081713310576,3.6566313514628854,3.328703610930582,1.4596154603479108,2.2069405594540283
4.305084104572652,2.4058497190082564,2.9748853658903154,5.207781997227298,3.6489783224605867,3.323214454342624,1.4598172407749193,2.2059617019239672
4.28791881594695,2.403409244113652,2.9740503641075033,5.194261945146151,3.641362243679186,3.3177299820573083,1.4600686504764375,2.2050360539368477
4.2707859219491215,2.4009282419108957,2.9731942126117157,5.1805279219140274,3.633787506487033,3.3122545127795897,1.4603690154802471,2.204162980245694
4.2536893886620515,2.3984076189088346,2.972318380982224,5.166586460457784,3.6262584262152813,3.3067923305026716,1.460717626795844,2.2033418345163946
4.236633316948113,2.395848271294035,2.9714243182276956,5.152444258744912,3.618779240844442,3.301347682980101,1.4611137423035245,2.2025719592879978
4.2196219424366745,2.393251084965444,2.9705134526508203,5.138108176429169,3.6113541097328126,3.2959247802155236,1.461556588638196,2.2018526857893206
4.202659634961623,2.3906169355815696,2.96958719172695,5.12358523119494,3.603987112387403,3.290527792970704,1.4620453630647587,2.201183333615666
4.185750897455746,2.387946688620166,2.9686469219963345,5.108882594814281,3.596682247277974,3.2851608512924915,1.4625792353425282,2.200563210270899
4.1689003643122335,2.385241199450377,2.9676940089695827,5.094007588930445,3.5894434306946983,3.2798280430593887,1.4631573495765766,2.199991610581761
4.152112799225955,2.3825013134173028,2.966729797046028,5.0789676805814015,3.5822744956499566,3.274533412548487,1.4637788260542208,2.199467815992818
4.135393092528299,2.379727865938972,2.9657556094446935,5.06377047747619,3.5751791908246755,3.269280959023512,1.4644427630653496,2.1989910937518844
4.118746258029963,2.376921682615698,2.964772748147546,5.048423723035782,3.5681611795596297,3.264074635344775,1.4651482387059405,2.198560695997345
4.102177429386645,2.3740835793518444,2.9637824938546697,5.03293529120822,3.56122403889203,3.2589183466017206,1.465894312664905,2.198175858760464
4.085691856003345,2.37121436248996,2.9627861059509932,5.017313181065345,3.5543712586377065,3.253815948768718,1.4666800279950403,2.197835800897097
4.069294898493818,2.368314828957221,2.9617848224842103,5.0015655111861,3.547606240519116,3.2487712473845956,1.4675044128691714,2.1975397229638363
4.052992023712028,2.365385766424059,2.960779860153621,4.985700513829794,3.540932297339314,3.2437879962563545,1.4683664823224494,2.1972868060534543
4.036788799372363,2.3624279534747985,2.9597724143097675,4.96972652890225,3.534352652201949,3.2388698961873676,1.4692652399814345,2.1970762106039374
4.0206908882752135,2.3594421597900648,2.9587636589648785,4.953651997718493,3.5278704377772288,3.2340205937303494,1.4701996797801866,2.1969070751945963
4.004704042155079,2.3564291463406746,2.957754746814209,4.937485456566935,3.5214886956137366,3.2292436799652915,1.4711687876631316,2.196778515341955
3.9888340951697008,2.3533896655926676,2.9567468092683837,4.921235530081418,3.515210375495912,3.2245426893025946,1.4721715432739246,2.1966896223073666
3.9730869570506067,2.3503244617230536,2.955740956496805,4.904910924428717,3.5090383348470024,3.21992109831162,1.4732069216288997,2.196639461927758
3.9574686059368416,2.347234270845812,2.95473827748213,4.888520420319745,3.502975338177246,3.2153823245750135,1.474273894772999,2.196627073480436
3.941985080914588,2.3441198212476,2.9537398400857686,4.872072865852897,3.4970240565770645,3.2109297255692995,1.4753714334153771,2.196651468592477
3.9266424742856203,2.340981833632556,2.9527466911242826,4.855577169197827,3.491187067255055,3.2065665975723516,1.4764985085413005,2.1967116302047405
3.911446923587616,2.3378210213755257,2.9517598564565,4.839042291127969,3.4854668531206383,3.202296174598481,1.4776540929965898,2.1968065115999558
3.896404603389445,2.3346380907829882,2.9507803410810904,4.822477237411101,3.479865802411382,3.1981216273618642,1.4788371630408454,2.196935035503659
3.8815217168848983,2.3314337413609114,2.9498091292443145,4.805891051069185,3.4743862083651433,3.1940460622689923,1.4800466998659036,2.1970960932661687
3.8668044873088885,2.3282086660887176,2.9488471845576325,4.789292804521169,3.469030268937318,3.190072520440785,1.4812816910762379,2.1972885441334093
3.852259149200823,2.324963551698526,2.9478954501248475,4.772691591624207,3.4638000865634484,3.186203976764903,1.482541132128104,2.1975112146144054
3.8378919395404374,2.3216990789588037,2.946954848678458,4.756096519629641,3.458697667967449,3.182443338978729,1.483824027724329,2.197762897953509
3.823709088781815,2.31841592296155,2.9460262827248394,4.7395167010703085,3.4537249240156194,3.1787934467834025,1.4851293931618468,2.198042353715442
3.8097168118112643,2.3151147534120895,2.9451106346977953,4.722961245596189,3.4488836696165928,3.1752570709891805,1.4864562556293905,2.198348307490846
3.7959212988542337,2.311796234920529,2.9442087671199935,4.706439251776088,3.4441756236673204,3.1718369126923447,1.4878036554530056,2.1986794507292573
3.782328706355451,2.308461027293882,2.94332152277171,4.689959798883571,3.439602409045175,3.168535602483782,1.4891706472870172,2.199034440705495
3.768945147855301,2.305109785827795,2.942449724866314,4.673531938684831,3.435165552646233,3.1653556996893117,1.4905563012478271,2.199411900624496
3.755776684884174,2.301743161596779,2.9415941772318943,4.6571646872447126,3.4308664854697364,3.1622996916417416,1.4919597039873964,2.1998104198687285
3.742829317895271,2.2983618017418026,2.940755664498444,4.640867016764974,3.4267065427487067,3.159369992984599,1.493379959702706,2.2002285543914524
3.730108977255526,2.2949663497540733,2.9399349522900278,4.624647847466615,3.422686964126597,3.156568945007407,1.494816191077161,2.2006648272581564
3.71762151431392,2.2915574457537953,2.9391327874214315,4.608516039526096,3.4188088938798544,3.1538988150123926,1.4962675401500525,2.2011177293374082
3.705372692566669,2.288135726762686,2.93834989809882,4.592480385073892,3.415073381186233,3.1513617957125337,1.497733169110925,2.201585720141197
3.693368178939338,2.284701826969038,2.937586994123928,4.576549600263097,3.411481380438672,3.148960004660864,1.49921226101672,2.2020672288136907
3.6816135352064925,2.2812563779842474,2.9368447671012983,4.560732317415725,3.4080337516045405,3.146695483711005,1.5007040204305135,2.202560655266343
3.6701142095697277,2.277800009089908,2.9361238906480054,4.545037077254525,3.4047312606300015,3.144570198508849,1.502207673981439,2.2030643714565468
3.658875528414639,2.274333347474799,2.9354250206052623,4.529472321227993,3.4015745798891905,3.1425860380153234,1.5037224708460095,2.203576722806629
3.647902688266706,2.270857018461244,2.934748795251281,4.514046383935721,3.3985642886778438,3.1407448140601377,1.5052476831515915,2.2040960297597887
3.6372007479651427,2.2673716457204356,2.9340958355147184,4.498767485660417,3.3957008737509042,3.1390482609264034,1.5067826063030225,2.2046205894695197
3.6267746210725877,2.2638778514763205,2.9334667451880625,4.483643725012695,3.392984729903556,3.137498034965949,1.5083265592333084,2.2051486776189972
3.6166290685371494,2.260376256697684,2.9328621111403206,4.468683071695285,3.390416160595047,3.136095714245113,1.509878884579074,2.2056785503668275
3.606768691621726,2.2568674812781095,2.932282503528396,4.4538933593943755,3.3879953786145722,3.1348427982206992,1.5114389487810993,2.2062084464154514
3.5971979251137656,2.2533521442036024,2.931728476006508,4.439282278806808,3.385722506788433,3.1337407074457078,1.5130061421099932,2.206736589198289
3.5879210308266978,2.249830863707759,2.931200565932968,4.424857370812296,3.383597578727672,3.1327907833043587,1.5145798786168705,2.207261189181468
3.578942091402329,2.246304257414462,2.9306992945736248,4.410626019799841,3.3816205396153687,3.1319942877758375,1.516159596008949,2.2077804462756405
3.5702650044218047,2.242772942468157,2.9302251673012165,4.396595447157072,3.3797912470327427,3.1313524032261295,1.5177447554501793,2.208292552353095
3.5618934768313784,2.239237535651804,2.9297786737899454,4.382772704930625,3.3781094718231914,3.1308662322272536,1.5193348412873573,2.2087956938650013
3.553831019688241,2.2356986534926473,2.9293602882046845,4.3691646696649045,3.3765748989933315,3.130536797403203,1.5209293607026215,2.2092880545533444
3.5460809432306832,2.2321569123559413,2.9289704693843666,4.35577803642596,3.375187128650082,3.1303650413019533,1.522527843293981,2.209767818251866
3.53864635227564,2.2286129285268044,2.9286096610192605,4.342619313016682,3.3739456769727916,3.130351826292953,1.5241298405865382,2.2102331717700654
3.531530141945188,2.22506731828038,2.928278291821983,4.329694814389101,3.372849977219376,3.130497934489619,1.5257349254781827,2.2106823078538844
3.5247349937220562,2.22152069794052,2.9279767756922577,4.3170106572595195,3.371899380765407,3.1308040676963764,1.5273426916244326,2.211113428216136
3.5182633718330596,2.217973683927257,2.9277055118755873,4.304572754933196,3.3710931581750327,3.131270847379951,1.5289527527675961,2.211524746629184
3.512117519958598,2.21442689279337,2.9274648851160694,4.292386812347813,3.370430500302559,3.131898814664622,1.530564742015666,2.21191449207215
3.506299458265807,2.2108809412503776,2.927255265803608,4.280458321347578,3.3699105194235086,3.132688430351252,1.5321783110764413,2.212280911924966
3.5008109807623664,2.2073364461843195,2.927077010115734,4.268792556201447,3.3695322503939993,3.1336400749598434,1.5337931294522795,2.2126222752018165
3.495653652967396,2.2037940246616605,2.9269304601542205,4.257394569378697,3.369294651837347,3.1347540487954135,1.5354088836005542,2.2129368758168275
3.49082880989541,2.200254293925625,2.926815944076653,4.246269187593681,3.369196607356938,3.1360305720369435,1.5370252760643108,2.2132230358752722
3.4863375543489354,2.1967178713832314,2.926733776223111,4.2354210081298245,3.3692369267746174,3.13746978484922,1.5386420245769237,2.213479108983963
3.482180755515204,2.1931853745832766,2.92668425723813,4.224854395451172,3.369414347393971,3.139071747517436,1.5402588611438053,2.2137034835746388
3.4783590478624364,2.1896574211855064,2.9266676741880873,4.214573478108339,3.3697275352880265,3.140836440604469,1.541875531103589,2.2138945862339927
3.474872830331608,2.1861346289211965,2.9266843006742245,4.204582145944498,3.3701750866108937,3.142763765130832,1.5434917921707898,2.2140508850337324
3.471722265819862,2.1826176155453823,2.9267343969414874,4.194884047605859,3.3707555289329094,3.144853542777373,1.5451074134618934,2.2141708928536685
3.4689072809514316,2.179106998780996,2.9268182099834212,4.185482588360047,3.371467322598852,3.147105516110956,1.5467221745069717,2.214253170690321
3.4664275661309953,2.175603396255179,2.9269359736434253,4.176380928224551,3.3723088621088158,3.149519348833426,1.5483358642491194,2.2142963309429047
3.464282575872975,2.1721074254280452,2.927087908712685,4.16758198040658,3.373278477521386,3.15209462605429,1.549948280034101,2.214299040667856
3.4624715293988624,2.168619703514165,2.9272742230251203,4.159088410054777,3.37437443587872,3.1548308545875536,1.5515592265925375,2.2142600247923423
3.4609934114932877,2.165140847397062,2.9274951115496344,4.150902633322644,3.375594942653136,3.157727463273268,1.5531685150167762,2.214178069276528
3.4598469736085504,2.161671473537018,2.927750756479905,4.1430268167431,3.3769381432147743,3.160783803324336,1.5547759617343524,2.2140520242137356
3.459030735206631,2.1582121978725293,2.9280413273219263,4.135462876913429,3.378402124319884,3.163999148699196,1.556381387479763,2.2138808068571456
3.45854298532742,2.1547636357157423,2.9283669809794715,4.128212480489507,3.379984915619231,3.1673726965009736,1.5579846162661697,2.213663404561226
3.4583817843720395,2.151326401642235,2.928727861837654,4.1212770444873446,3.381684491186078,3.170903567403597,1.5595854743586306,2.2133988776257185
3.458544966090916,2.1479011093754927,2.929124101844791,4.114657736888718,3.383498771063076,3.1745908061053068,1.5611837892504328,2.213086362029907
3.459030139767807,2.1444883716664647,2.9295558205927414,4.108355477546389,3.3854256228273107,3.178433381809863,1.562779388644104,2.2127250720451195
3.459834692593146,2.1410888001685615,2.9300231253958873,4.10237093938326,3.387462863172626,3.182430188735627,1.5643720994387278,2.2123143027139416
3.460955792222374,2.137703005308482,2.930526111368886,4.096704549878864,3.389608259508281,3.186580046652654,1.5659617467251328,2.2118534321852454
3.462390389516735,2.134331596153227,2.931064861503287,4.091356492835829,3.3918595315729467,3.190881701447781,1.5675481527903792,2.2113419238949086
3.4641352214651406,2.130975180273724,2.9316394467430955,4.086326710418466,3.3942143530629942,3.1953338257176602,1.569131136132659,2.210779328582956
3.466186814286266,2.127634363605466,2.9322499260593697,4.081614905455847,3.396670353274006,3.19993501938964,1.5707105104874588,2.210165286138719
3.4685414867101563,2.1243097503066255,2.9328963465239375,4.077220544002018,3.399225118754358,3.2046838103703505,1.5722860838655914,2.2094995272664124
3.471195353438513,2.121001942614034,2.933578743382322,4.073142858146237,3.4018761949697143,3.2095786552219128,1.5738576576035637,2.208781874964251
3.474144328782474,2.117711540697472,2.934297140125959,4.0693808490660075,3.4046210879772243,3.2146179398656023,1.5754250254265658,2.2080122458108966
3.4773841304762456,2.1144391425126203,2.935051548563695,4.065933290315811,3.40745726610822,3.2197999803127755,1.576987972524286,2.207190651053581
3.48091028366427,2.111185343653045,2.935841968892509,4.062798731345127,3.4103821616582195,3.225123023422764,1.5785462746397656,2.206317197492487
3.4847181250586745,2.107950737201489,2.936668389767317,4.059975501240245,3.4133931725830235,3.2305852476873334,1.5800996971716597,2.205392088156098
3.4888028072626485,2.1047359135807278,2.937530788369624,4.057461712685278,3.4164876641996793,3.2361847640412362,1.5816479942905106,2.2044156227623626
3.493159303254361,2.1015414604041904,2.9384291304747627,4.055255266138351,3.419662970891087,3.241919616698303,1.583190908070042,2.2033881979607792
3.497782411025475,2.0983679623265297,2.9393633705173774,4.053353854219744,3.4229163978130606,3.247787784012543,1.5847281676350973,2.2023103073508925
3.502666758368337,2.0952160008943372,2.9403334516548063,4.051754966309477,3.426245222602717,3.2537871793637345,1.5862594883285754,2.201182541273559
3.507806807806354,2.0920861543972546,2.9413393058279627,4.050455893352227,3.429646697087126,3.2599156520670887,1.5877845709004017,2.2000055863727925
3.5131968616625895,2.0889789977197775,2.9423808538193295,4.0494537328669455,3.433118048991209,3.2661709883066283,1.5893031007221714,2.1987802249280053
3.518831067262098,2.085895102194144,2.943458005307624,4.0487453941572795,3.436656483643876,3.272550912092008,1.5908147470316856,2.1975073339584412
3.524703422263601,2.082835035454692,2.9445706589186607,4.048327603717286,3.4402591856814055,3.279053086238578,1.5923191622119595,2.196187884103254
3.5308077801158793,2.0797993612940915,2.945718702271945,4.048196910824972,3.443923320746996,3.2856751133705986,1.5938159811093373,2.1948229382820696
3.5371378556337096,2.076788639521824,2.9469020120225715,4.048349693314393,3.447646037185381,3.292414536947618,1.595304820394921,2.193413650142014
3.5436872306876923,2.073803425825283,2.9481204538980985,4.048782163515505,3.451424467731299,3.2992688423141376,1.596785277972873,2.191961262298151
3.5504493600018434,2.070844271633849,2.9493738827301925,4.049490374349792,3.4552557311905403,3.306235457772745,1.5982569324384261,2.1904671043750104
3.5574175770522394,2.0679117239862865,2.9506621424808688,4.0504702255693585,3.4591369341122107,3.3133117556809144,1.5997193425878562,2.1889325908574584
3.5645851000591304,2.0650063254017916,2.9519850662631693,4.051717470127493,3.463065172450766,3.320495053571637,1.6011720469823754,2.1873592187595428
3.5719450380641713,2.062128613754986,2.953342476356085,4.053227720669781,3.4670375332163275,3.3277826152979917,1.6026145635679188,2.185748565120049
3.579490397084522,2.0592791221551496,2.9547341842134953,4.054996456135987,3.4710510961118297,3.335171652201678,1.6040463893529062,2.1841022843333815
3.587214086336897,2.0564583788299906,2.956159990466853,4.05701902846344,3.4751029351557015,3.342659324305499,1.6054670001460252,2.1824221053243074
3.5951089245269547,2.0536669070142564,2.9576196849213154,4.05929066938233,3.479190120288996,3.35024274152968,1.6068758503557508,2.1807098285749023
3.6031676462016673,2.0509052248435036,2.9591130465449904,4.061806497292526,3.4833097189661455,3.3579189649318524,1.6082723728526958,2.1789673230117073
3.6113829081637796,2.0481738452533147,2.9606398434509167,4.064561524210431,3.4874587977287277,3.3656850079704626,1.6096559788951585,2.1771965227605263
3.6197472959478767,2.0454732758842074,2.9621998328714363,4.067550662773317,3.4916344237617616,3.3735378377912664,1.6110260581174787,2.175399423775746
3.628253330357203,2.0428040189924115,2.963792761124596,4.070768733287899,3.4958336664321132,3.381474376536538,1.6123819785802753,2.1735780803507043
3.636893474059414,2.0401665713666177,2.965418363572305,4.074210470809501,3.5000535988086448,3.3894915026765013,1.6137230868813086,2.1717346015154195
3.6456601382382576,2.0375614242507414,2.967076364570061,4.077870532237986,3.504291299163757,3.397586052362474,1.615048708325654,2.1698711473279273
3.6545456892967563,2.034989063272689,2.9687664774082756,4.081743503416356,3.508543852456029,3.40575482080113,1.6163581471540998,2.1679899250654335
3.6635424556061493,2.032449968379071,2.9704884042453936,4.085823906217699,3.5128083517936863,3.4139945636493354,1.6176506868291647,2.1660931853214884
3.6726427342935013,2.0299446137757666,2.972241836033227,4.090106205606185,3.5170818998786673,3.422301998428935,1.6189255903787305,2.1641832180153866
3.68183879805999,2.0274734678741977,2.9740264524350883,4.094584816658118,3.521361610431047,3.430673805960909,1.620182100797768,2.1622623483201635
3.6911229020216743,2.0250369932431393,2.975841921737455,4.099254111529554,3.525644609593512,3.439106631818256,1.6214194415087715,2.160332932515901
3.7004872905655564,2.022635646565857,2.9776879007559613,4.104108426357571,3.5299280373154795,3.447597087796884,1.6226368168814085,2.158397353775458
3.7099242042154845,2.020269878602325,2.979564034736533,4.109142068082742,3.534209048716372,3.456141753403751,1.6238334128115768,2.1564580178900736
3.7194258865042227,2.0179401341562455,2.981469957252476,4.114349321180602,3.538484815427441,3.464737177361417,1.6250083973597236,2.1545173489425395
3.7289845908490187,2.0156468520465918,2.983405290098281,4.119724454290003,3.542752526911524,3.4733798791280885,1.6261609214479267,2.152577784935954
3.7385925874281507,2.013390465083351,2.985369643180899,4.1252617267266825,3.5470093917601266,3.48206635043223,1.6272901196149037,2.150641773386357
3.7482421700555477,2.0111714000471728,2.987362614409231,4.130955394871182,3.5512526389673624,3.4907930568207726,1.628395110827679,2.1487117668878297
3.75792566304995,2.008990077672584,2.9893837895825905,4.136799718421029,3.5554795191804893,3.499556439220026,1.6294749993481592,2.146790218658848
3.767635428094387,2.006846912634423,2.9914327422788927,4.142788966497948,3.5596873059270457,3.508352915508489,1.630528875652409,2.1448795780789385
3.7773638710808624,2.004742313537142,2.9935090337432992,4.148917423601768,3.5638732968187843,3.517178882100911,1.6315558174002216,2.1429822862250973
3.7871034489340496,2.0026766829066607,2.9956122127780738,4.155179395403988,3.5680348147327803,3.526030715543043,1.632554890452584,2.1411007714179253
3.7968466764065845,2.000650417184495,2.997741815634452,4.161569214375002,3.5721692089701493,3.5349047741166615,1.6335251499347927,2.1392374447878426
3.806586132837691,1.9986639067239513,2.999897365907387,4.168081245239759,3.5762738563927825,3.543797399454461,1.634465641343042,2.1373946958719325
3.8163144688667288,1.9967175357882232,3.0020783744340798,4.174709890257465,3.580346162538444,3.552704918164485,1.635375401692164,2.1355748882517873
3.8260244130939403,1.9948116825502709,3.0042843391971203,4.181449594321799,3.5843835627145317,3.5616236434637605,1.6362534607020123,2.133780355242245
3.8357087786816484,1.992946719094383,3.0065147452330714,4.188294849878807,3.5883835230706795,3.570549876820773,1.6370988420198642,2.1320133956404757
3.8453604698900974,1.991123011419315,3.00876906454719,4.19524020165933,3.5923435416503806,3.5794799096063508,1.6379105644762877,2.130276269544775
3.8549724885430416,1.9893409194429306,3.0110467560349456,4.202280251221778,3.5962611494217263,3.5884100247524544,1.6386876433721806,2.128571194252899
3.864537940418955,1.9876007970082292,3.013347265410903,4.209409661299715,3.6001339112872977,3.5973364984182377,1.6394290917948706,2.126900340250423
3.8740500415643426,1.9859029918906659,3.0156700251454724,4.216623159947652,3.6039594270732285,3.6062556016626455,1.6401339219611355,2.125265827300226
3.8835021245257404,1.9842478458066322,3.0180144544099834,4.223915544477774,3.6077353324973735,3.615163602122709,1.640801146584844,2.1236697206444397
3.8928876444966356,1.9826356944229468,3.020379959030496,4.231281685180667,3.6114593001164716,3.6240567656965506,1.6414297802667313,2.1221140273300105
3.902200185375302,1.981066867367186,3.0227659314507793,4.238716528824147,3.6151290402521754,3.6329313582300156,1.6420188409037135,2.120600692668489
3.911433465729571,1.9795416882386543,3.0251717507048568,4.2462151019260395,3.6187423018957596,3.641783647205742,1.6425673511150651,2.119131596840003
3.920581344664815,1.978060474619788,3.027596782399562,4.253772513798105,3.6222968735913423,3.6506099034334905,1.6430743396828036,2.117708551650704
3.929637827591126,1.9766235380877777,3.0300403787075694,4.2613839593590646,3.625790584297469,3.659406402740505,1.64353884300376,2.1163332974524782
3.9385970718847663,1.9752311842261938,3.032501878371339,4.269044721714821,3.629221304226892,3.6681694276607697,1.6439599065509292,2.115007500233177
3.9474533924375317,1.9738837126364268,3.0349806067184346,4.2767501745042225,3.6325869456643756,3.676895269121917,1.6443365863417836,2.1137327488849738
3.956201267086211,1.9725814169488105,3.0374758756886173,4.284495784009234,3.6358854637622584,3.6855802281285968,1.6446679504112178,2.1125105526576085
3.9648353419128584,1.9713245848333627,3.039986983873126,4.292277111028906,3.6391148573134857,3.6942206174410206,1.6449530802866363,2.1113423388023187
3.973350436405275,1.9701134980101391,3.0425132165664603,4.300089812516463,3.6422731695017037,3.7028127632474512,1.6451910724622727,2.1102294504111407
3.9817415484658754,1.9689484322592141,3.0450538458309153,4.307929642978026,3.645358488628007,3.7113530068295146,1.6453810398692585,2.1091731444552964
3.9900038592563587,1.9678296574303196,3.047608130574031,4.315792455630439,3.6483689488138764,3.7198377062193186,1.6455221133373603,2.1081745900254973
3.998132737865381,1.9667574374521797,3.05017531663899,4.323674203314711,3.6513027306798755,3.7282632378474694,1.6456134430438023,2.107234866776282
4.0061237457865975,1.9657320303415569,3.05275463690792,4.33157093916119,3.654158061999657,3.736625998181119,1.6456541999441896,2.1063549635757033
4.013972641194705,1.9647536882120313,3.0553453114179305,4.339478817002761,3.6569332183289442,3.7449224053511503,1.6456435771803366,2.1055357773609127
4.0216753830074,1.963822657282481,3.0579465474896077,4.3473940915330305,3.6596265236091776,3.7531489007675187,1.6455807914597644,2.104778112199448
4.0292281347218895,1.9629391778852268,3.0605575398676295,4.355313118207751,3.662236350745625,3.7613019507217107,1.6454650844019623,2.1040826785555136
4.036627268015773,1.9621034844737995,3.0631774708730797,4.3632323528896375,3.6647611221597867,3.769378047975172,1.645295723847141,2.1034500927601023
4.043869366103641,1.961315805630319,3.065805510567046,4.371148351238934,3.667199310315953,3.7773737133325227,1.6450720051239491,2.102880876683203
4.050951226842002,1.9605763640725238,3.0684408169251145,4.379057767853991,3.669549438221832,3.7852854971982897,1.6447932522731321,2.102375457605578
4.0578698655758805,1.9598853766604922,3.071082536022452,4.386957355167349,3.671810079903125,3.7931099811158777,1.6444588192242544,2.101934168286644
4.064622517720323,1.9592430544031043,3.073729802229223,4.394843962103757,3.6739798608519108,3.8008437792873786,1.6440680909223584,2.1015572472242097
4.071206641069337,1.958649602464254,3.076381738416116,4.402714532507628,3.676057458448682,3.8084835400727575,1.643620484401121,2.101244839101133
4.077619917824038,1.9581052201687912,3.0790374561697638,4.4105661033486605,3.6780416023577978,3.8160259474667946,1.6431154497988703,2.100996995413318
4.083860256331804,1.9576101010081604,3.0816960560178592,4.418395802715168,3.67993107489609,3.8234677225520777,1.6425524713139947,2.1008136752729696
4.0899257925297,1.9571644326457471,3.0843566276637655,4.426200847604904,3.6817247113743115,3.830805624926228,1.6419310680966908,2.1006947463809387
4.095814891088215,1.9567683969220002,3.087018250230423,4.433978541522894,3.683421400411154,3.8380364541015655,1.641250795074522,2.100639986162415
4.10152614625483,1.9564221698594575,3.0896799925133203,4.441726271895217,3.6850200842196297,3.8451570508754807,1.6405112437097393,2.100649083060841
4.107058382400225,1.9561259216678422,3.092340913242249,4.4494415073068945,3.6865197588657326,3.8521642986699285,1.6397120426868361,2.100721637985156
4.112410654272593,1.955879816749384,3.095000061351511,4.457121794571499,3.6879194744993176,3.85905512483863,1.6388528585295592,2.1008571659050923
4.117582246966971,1.955684013704497,3.0976564762582237,4.464764755640012,3.6892183355572103,3.8658265019406812,1.6379333961475069,2.1010550975885502
4.122572675616782,1.955538665337918,3.1003091881483464,4.472368084356907,3.690415500938571,3.8724754489794644,1.6369533993132364,2.1013147814743216
4.1273816848141225,1.9554439186653232,3.102957218270085,4.479929543072143,3.691510184152575,3.878999032605854,1.6359126510712547,2.101635485672846
4.132009247763868,1.9553999149204324,3.105599579234276,4.487446959118281,3.6925016534385535,3.885394368284941,1.6348109740802856,2.102016400087192
4.136455565174956,1.9554067895625618,3.108235275321421,4.4949182211628065,3.6933892318587485,3.8916586214256963,1.6336482308901643,2.102456638646156
4.140721063890313,1.955464672284546,3.110863302794967,4.502341275446601,3.6941722973638678,3.8977890084732056,1.6324243241548315,2.1029552416413755
4.144806395255014,1.9555736870209555,3.1134826502204778,4.50971412192077,3.694850282831556,3.9037827979632427,1.6311391967832722,2.1035111781608045
4.1487124332205845,1.955733951956507,3.1160922987903032,4.5170348102954545,3.695422676077851,3.909637311539043,1.629792832030597,2.1041233486115787
4.1524402721820035,1.9559455795345742,3.1186912226534425,4.5243014360163025,3.6958890198417103,3.9153499249301635,1.6283852535316303,2.1047905873258967
4.1559912245434365,1.956208676465709,3.1212783892503437,4.531512136186952,3.6962489117426953,3.920918068893303,1.626916525279397,2.1055116652439128
4.159366818009229,1.956523343736077,3.123852759652513,4.538665085458722,3.696502004212009,3.9263392301150777,1.6253867515507983,2.1062852926678324
4.162568792598009,1.956889676615708,3.126413288906945,4.5457584919108704,3.696648004397165,3.9316109520769005,1.6237960767817246,2.107110122081577
4.165599097379316,1.95730776466645,3.128958926385593,4.552790592945544,3.696686674040622,3.9367308358823307,1.6221446853939343,2.1079847510303953
4.16845988693319,1.9577776917494862,3.1314886161402837,4.55975965122094,3.69661782933278,3.9416965410474534,1.620432801576306,2.1089077250546913
4.171153517533395,1.9582995360322764,3.1340012972635853,4.566663950644985,3.6964413407397387,3.9465057862549897,1.6186606890235273,2.10987754067205
4.173682543054782,1.958873369994733,3.1364959042561487,4.57350179245039,3.6961571328062757,3.9511563500728495,1.6168286506355847,2.1108926484012205
4.176049710605588,1.959499260434475,3.138971367401026,4.580271491370551,3.695765183934552,3.9556460716378186,1.6149370281816418,2.1119514558216217
4.178257955886939,1.9601772684710073,3.1414266131453656,4.586971371934219,3.695265526139106,3.959972851305015,1.612986201931993,2.1130523306616587
4.180310398284605,1.9609074495487124,3.1438605644898505,4.59359976489517,3.694658244778771,3.964134651263692,1.6109765902617985,2.1141936039088485
4.182210335701407,1.9616898534385923,3.1462721413861847,4.6001550038115,3.6939434782661804,3.968129496119973,1.6089086492301687,2.115373572934398
4.1839612391418335,1.96252452423876,3.1486602611429375,4.606635421787796,3.6931214177555294,3.971955473447157,1.6067828721378425,2.116590504624737
4.1855667470626265,1.9634115003736776,3.151023838840053,4.61303934839243,3.692192306809345,3.9756107343043237,1.604599789066301,2.1178426385124736
4.187030659504322,1.9643508145921356,3.1533617877523676,4.619365106761438,3.691156441045102,3.979093493724026,1.6023599664007677,2.119128189899428
4.188356932019191,1.9653424939639192,3.1556730197824496,4.6256110108996245,3.6900141677626723,3.9824020311698454,1.6000640063390903,2.120445352964713
4.18954966941117,1.9663865598750871,3.1579564459031157,4.631775363188747,3.6887658855536722,3.9855346909645246,1.5977125463880686,2.1217923038513296
4.1906131193032135,1.9674830280217686,3.160210976609929,4.6378564521115395,3.6874120438937936,3.9884898826893243,1.5953062588483324,2.123167203725084
4.191551665546976,1.9686319084024038,3.1624355223839684,4.643852550199059,3.6859531427191783,3.9912660815552092,1.5928458502885559,2.1245682017998018
4.192369821488646,1.9698332053083922,3.164628994165071,4.649761912207302,3.6843897319877743,3.9938618287464354,1.5903320610095566,2.125993438322834
4.193072223103311,1.9710869173131442,3.1667903038357195,4.655582773527426,3.6827224112265586,3.9962757317370543,1.5877656644986669,2.127441047514832
4.193663622008803,1.9723930372595087,3.168918364715613,4.661313348832538,3.6809518290653798,3.998506464580779,1.5851474668745786,2.128909160457926
4.194148878368873,1.973751552245553,3.171012092066948,4.666951830963244,3.6790786827581425,4.000552768174561,1.582478306322658,2.1303959079264705
4.194532953694786,1.9751624436086708,3.1730704036103465,4.6724963900534116,3.677103717691938,4.002413450496131,1.5797590525203866,2.1318994231544472
4.194820903553581,1.9766256869080074,3.175092220051302,4.677945172896802,3.6750277268846916,4.004087386815656,1.5769906060520902,2.13341784453325
4.195017870190166,1.97814125190523,3.1770764656169592,4.683296302553898,3.672851550471849,4.005573519881573,1.5741738978115265,2.1349493182332964
4.195129075069085,1.9797091025436568,3.1790220686029396,4.688547878196717,3.670576075182636,4.006870860080581,1.5713098883903314,2.136492000742877
4.195159811340413,1.9813291969257667,3.1809279619298616,4.693697975187706,3.668202233806403,4.007978485571731,1.568399567449921,2.1380440613180474
4.195115436232596,1.9830014872890527,3.182793083709143,4.69874464538739,3.6657310046496234,4.008895542394599,1.5654439530743014,2.1396036843382165
4.195001363373657,1.9847259199802132,3.1846163778176,4.703685917684377,3.663163410984009,4.009621244551593,1.5624440911012976,2.1411690715632483
4.1948230550414,1.9865024354276481,3.1863967944803258,4.708519798740507,3.6605005204862144,4.010154874064624,1.5594010544299397,2.1427384442890607
4.19458601434397,1.988330968112281,3.18813329086124,4.713244273943036,3.6577434446694963,4.010495781006493,1.5563159423021697,2.1443100453996067
4.194295777334408,1.9902114465367609,3.189824831660732,4.7178573085542865,3.654893338307699,4.010643383507386,1.5531898795576258,2.1458821413135496
4.193957905066426,1.9921437931931536,3.1914703897198193,4.7223568490479835,3.651951398851842,4.010597167736916,1.5500240158608873,2.147453023824031
4.193577975602431,1.9941279245292427,3.193068946630236,4.726740824620555,3.64891886583957,4.010356687862111,1.5468195249009926,2.149021011829919
4.193161575987974,1.9961637509135841,3.1946194933499,4.731007148865906,3.6457970202975867,4.009921565981803,1.543577603563173,2.1505844529571387
4.1927142942086535,1.9982511765994633,3.1961210308231127,4.7351537216030835,3.642587184137172,4.009291492037872,1.5402994710727191,2.1521417250690837
4.192241711145828,2.00039009968792,3.1975725706049007,4.739178430847731,3.639290719542766,4.008466223703897,1.5369863681108402,2.1536912376655435
4.19174939254678,2.0025804120900363,3.1989731354888127,4.743079154919864,3.635909028353569,4.007445586251764,1.5336395559022529,2.155231433170056
4.191242881023773,2.0048219994887453,3.2003217601375664,4.746853764682079,3.6324435514381,4.0062294723968686,1.5302603152740764,2.156760788106365
4.190727688095252,2.0071147413004047,3.201617491715912,4.7505001259033595,3.6288957680616227,4.0048178421225735,1.526849945685526,2.1582778141657455
4.190209286281336,2.0094585106364256,3.2028593905250813,4.754016101744045,3.625267195246394,4.003210722484683,1.5234097642280013,2.1597810591682234
4.189693101264733,2.0118531742652004,3.2040465306381947,4.757399555357096,3.62155938712475,4.001408207396614,1.5199411045953763,2.1612691079218203
4.189184504127354,2.014298592574564,3.205178000535965,4.760648352599946,3.6177739342851343,3.999410457395965,1.5164453160243947,2.162740582984875
4.188688803672375,2.0167946195350166,3.2062529037420693,4.763760364850385,3.6139124631112476,3.9972176993931026,1.5129237622050402,2.164194145337042
4.188211238841268,2.0193411026639443,3.2072703594575223,4.766733471919256,3.6099766351144993,3.9948302264023647,1.5093778201606916,2.165628494964913
4.187756971235594,2.0219378829910712,3.208229503193439,4.769565565052423,3.60596814625989,3.9922483972563727,1.5058088790980428,2.1670423713683538
4.187331077753678,2.0245847950253744,3.2091294874015075,4.772254550013769,3.6018887262853787,3.9894726363039315,1.5022183392272697,2.1684345539938374
4.186938543352777,2.027281666723645,3.2099694821015436,4.77479835024057,3.5977401380147613,3.986503433091885,1.4986076105536528,2.16980386260119
4.186584253947725,2.0300283194608544,3.2107486755054717,4.777194910063,3.5935241766639923,3.983341342031247,1.4949781116425294,2.1711491575701354
4.186272989457576,2.032824568002442,3.2114662746370337,4.779442197981191,3.5892426691408947,3.9799869820478695,1.491331268359807,2.1724693401526403
4.186009417012607,2.0356702204786483,3.2121215059465102,4.781538209995579,3.5848974733381223,3.9764410362178553,1.4876685125903335,2.173763352676327
4.185798084334602,2.0385650783610347,3.2127136159197054,4.783480972987775,3.580490477419157,3.972704251387884,1.483991280936315,2.175030178703334
4.185643413303228,2.0415089364413648,3.2132418716804416,4.785268548149486,3.5760235990971148,3.968777437780597,1.4803010133977965,2.176268843147983
4.185549693720209,2.0445015828130133,3.2137055615858103,4.78689903445658,3.5714987849060624,3.9646614685852075,1.476599152037092,2.1774784123556827
4.185521077281282,2.047542798855055,3.2141039958133653,4.788370572185009,3.566918009464573,3.9603572795335724,1.472887139629088,2.1786579941447126
4.185561571763845,2.0506323592191618,3.2144365069393928,4.789681346465836,3.5622832747311657,3.9558658684620123,1.4691664182995454,2.17980673781193
4.185675035436291,2.05377003181942,3.2147024505073207,4.790829590877636,3.5575966092512505,3.951188294859191,1.4654384281537267,2.1809238341031247
4.185865171693485,2.056955577825146,3.214901205585298,4.791813591075365,3.5528600673951223,3.9463256794003594,1.461704605897675,2.182008515148711
4.186135523922155,2.060188751656821,3.2150321753120035,4.792631688454655,3.548075728586486,3.9412792034682322,1.4579663834543455,2.1830600543655634
4.186489470600093,2.0634693009852505,3.2150947874298037,4.793282283849439,3.5432456965210077,3.9360501086607,1.454225186576654,2.1840777663259052
4.186930220633932,2.066796966734121,3.2150884948044656,4.793763841259292,3.5383720983744373,3.930639696285538,1.4504824334594792,2.1850610065941036
4.187460808941163,2.0701714830861007,3.215012775930664,4.7940748916015,3.5334570840000246,3.9250493268421978,1.4467395333526973,2.186009171532131
4.188084092282715,2.0735925774926467,3.2148671354225824,4.794214036481701,3.5285028251151993,3.9192804194907107,1.4429978851773888,2.186921698074641
4.188802745352645,2.077059970687608,3.2146511044889303,4.794179951976051,3.5235115144776543,3.913334451507658,1.4392588761472913,2.187798063475241
4.189619257131874,2.0805733767046823,3.214364241391734,4.7939713924171405,3.5184853650512333,3.9072129577291164,1.4355238803973487,2.188637785026628
4.1905359275136655,2.084132502898721,3.2140061318882633,4.793587194175294,3.513426609162082,3.900917529980525,1.4317942576209077,2.18944041975829
4.191554864209161,2.0877370499708485,3.213576389655446,4.793026279426208,3.508337497645658,3.894449816493386,1.4280713517171233,2.190205564115996
4.192677979941277,2.0913867119973815,3.2130746566961,4.792287659895159,3.503220298985215,3.887811521308819,1.424356489450572,2.1909328536273733
4.1939069899344235,2.0950811764625414,3.2125006037263164,4.791370440567067,3.4980772984423654,3.8810044036680766,1.4206509791257336,2.191621962557578
4.195243409706356,2.0988201242949804,3.2118539305433154,4.790273823350892,3.4929107971803557,3.8740302773902635,1.416956109279453,2.1922726035587656
4.196688553167345,2.102603229908117,3.211134366373156,4.78899711068613,3.4877231113805784,3.8668910102376337,1.4132731473945943,2.1928845273168402
4.198243531030799,2.1064301612442815,3.210341670197677,4.787539709078617,3.482516571352835,3.859588523268846,1.4096033386380729,2.193457522198763
4.199909249538407,2.1103005798225865,3.2094756310600956,4.785901132552355,3.4772935206397904,3.852124790180569,1.4059479046265038,2.1939914139035532
4.201686409501661,2.114214140790435,3.2085360683486206,4.784081006003834,3.4720563151160246,3.8445018366377384,1.4023080422228031,2.194486065119841
4.203575505660441,2.1181704929784835,3.2075228320574225,4.782079068445521,3.4668073220820994,3.8367217395927335,1.3986849223670326,2.194941375192487
4.205576826358507,2.1221692789588578,3.206435803024258,4.779895176125642,3.461548919354016,3.8287866265936996,1.3950796889447319,2.195357279800462
4.20769045353527,2.1262101351063305,3.205274893144152,4.777529305512069,3.4562834943485194,3.820698675082205,1.3914934576960523,2.1957337506478045
4.2099162630329925,2.130292691662128,3.204040045558612,4.774981556129167,3.451013443164635,3.8124601116803594,1.3879273151692384,2.196070795169105
4.21225392521806,2.1344165727999567,3.2027312348201145,4.77225215323781,3.4457411696618387,3.8040732114674536,1.3843823177221337,2.1963684562505144
4.214702905913987,2.138581396693804,3.2013484670317554,4.769341450349743,3.4404690845351875,3.7955402972460575,1.3808594905752336,2.196626811966818
4.217262467642477,2.142786775586997,3.1998917799622375,4.766249931567687,3.435199604387657,3.786863738797513,1.377359826919491,2.19684597533457
4.21993167116776,2.147032315861977,3.1983612431365516,4.762978213742616,3.4299351507998934,3.7780459521266554,1.3738842870817543,2.197026094080552
4.22270937733898,2.1513176181102223,3.19675695790288,4.759527048440428,3.424678149397483,3.76908939869566,1.3704337977505285,2.1971673504238396
4.225594249225283,2.155642277201733,3.1950790574763395,4.755897323712352,3.4194310289158545,3.7599965846469496,1.3670092512646477,2.1972699608687627
4.228584754538447,2.1600058823534725,3.193327706960164,4.752090065666289,3.414196220262987,3.7507700600152196,1.3636115049674096,2.197334176005114
4.231679168337345,2.1644080171961626,3.1915031033448624,4.748106439838925,3.4089761555801643,3.7414124179287778,1.3602413806288096,2.1973602803113548
4.234875576007695,2.1688482598388124,3.1896054754858314,4.743947752369789,3.4037732673010823,3.731926293800498,1.3568996639386874,2.197348591956086
4.238171876509067,2.173326182930383,3.1876350840597563,4.739615450978481,3.3985899872096645,3.7223143645087844,1.353587104073752,2.1972994625926705
4.241565785879462,2.177841353718057,3.185592221500059,4.735111125745051,3.393428745496909,3.712579347568976,1.3503044133414637,2.197213277141421
4.245054840986161,2.182393334101647,3.183477211911552,4.730436509692177,3.3882919698170233,3.7027240002956803,1.347052266903629,2.1970904535533227
4.2486364035103605,2.186981680683798,3.181290410964346,4.725593479166768,3.383182084343049,3.6927511189565165,1.3438313025823065,2.1969314425490234
4.252307664152922,2.1916059448157506,3.179032205767012,4.720584054018443,3.3781015088221205,3.682663537917778,1.3406421207502575,2.196736727326863
4.2560656470492635,2.196265672638504,3.1767030147189597,4.715410397572451,3.3730526576303994,3.6724641287824498,1.3374852843077292,2.196506823234459
4.259907214382788,2.200960405119259,3.1743032873420223,4.710074816395027,3.368037938827654,3.662155799520974,1.3343613187469683,2.1962422773998647
4.263829071187782,2.20568967808302,3.1718335040912877,4.704579759849702,3.363059753211429,3.651741493595094,1.3312707123055465,2.195943668320354
4.267827770334123,2.210453022239207,3.1692941761451934,4.698927819443636,3.3581204933707176,3.641224189075066,1.3282139162092952,2.195611605408656
4.271899717687302,2.2152499632031066,3.1666858451749165,4.693121727962966,3.3532225427391436,3.6306068977504693,1.3251913450053,2.1952467284975032
4.276041177438015,2.220080021511943,3.1640090830930028,4.687164358395723,3.3483682746476298,3.619892664234824,1.3222033769850048,2.1948497073035775
4.280248277595736,2.224942712635333,3.1612644917811643,4.681058722640255,3.343560051376622,3.6090845650641588,1.319250354697081,2.1944212408517103
4.2845170156402705,2.229837546979836,3.158452702797121,4.674807969996882,3.3388002232078597,3.5981857077896042,1.316332585549254,2.1939620568597835
4.288843264324468,2.234764029887338,3.1555743770603426,4.668415385440637,3.334091127475701,3.587199230064105,1.3134503424977535,2.1934729110843727
4.293222777619969,2.23972166162698,3.152630204516507,4.6618843876735525,3.3294350876178864,3.5761282987232477,1.3106038648224552,2.192954586626763
4.297651196796236,2.244709937380341,3.1496209037805647,4.655218526955643,3.324834412225656,3.5649761088602414,1.3077933589852442,2.1924078931986752
4.302124056621009,2.2497283472195395,3.1465472217583237,4.64842148271472,3.32029139409305,3.55374588289505,1.305018999568698,2.1918336663469136
4.306636791668098,2.254776376077882,3.1434099332466623,4.641497060937456,3.315808309265352,3.542440869637621,1.3022809302918739,2.1912327666364333
4.311184742716103,2.2598535037126473,3.140209840512511,4.634449191348057,3.3113874160866965,3.531064343345177,1.2995792650996554,2.190606078791814
4.3157631632194775,2.2649592046595464,3.136947772850865,4.627281924385514,3.3070309542471463,3.519619602773509,1.2969140893217843,2.1899545107977767
4.320367225831089,2.2700929481783967,3.1336245861221066,4.619999427993634,3.302741143829699,3.5081099702221965,1.2942854608973535,2.1892789929599874
4.324992028953294,2.2752541981895034,3.1302411622689443,4.612605984239086,3.298520184357897,3.4965387905736387,1.2916934116603245,2.188580476928036
4.329632603292855,2.2804424132002827,3.126798408813294,4.605105985772233,3.294370253844734,3.4849094303257897,1.2891379486815104,2.1878599346832437
4.334283918394544,2.2856570462216976,3.123297258333428,4.597503932144592,3.29029350784352,3.473225276618513,1.2866190556624717,2.187118357494586
4.338940889129589,2.2908975446741877,3.1197386679217245,4.589804425996076,3.2862920785013467,3.4614897362536032,1.2841366943768762,2.1863567548464515
4.343598382118286,2.296163350282971,3.116123618623352,4.582012169124709,3.282368073615726,3.4497062347086445,1.2816908061552377,2.185576153342013
4.348251222070624,2.3014538989627686,3.1124531148562498,4.574131958451166,3.278523575695031,3.4378782151450995,1.279281313409431,2.1847775955858664
4.3528941980339795,2.3067686206922713,3.1087281838128087,4.566168681889843,3.274760641023495,3.426009137411149,1.2769081211939617,2.183962139049344
4.357522069541905,2.312106939378848,3.1049498748437454,4.558127314137056,3.271081298731584,3.41410247703994,1.2745711188013906,2.1831308549216
4.362129572662323,2.3174682727141502,3.1011192588247396,4.550012912385615,3.267487549872641,3.4021617242439377,1.2722701813895005,2.182284826949197
4.366711425946669,2.3228520320213044,3.0972374275065064,4.541830611973584,3.2639813665067083,3.390190382906053,1.2700051716376977,2.181425150266592
4.3712623362836025,2.3282576220944295,3.0933054928490926,4.533585621973728,3.2605646907923593,3.378191969568231,1.2677759414298833,2.1805529302194855
4.375777004661983,2.3336844410311803,3.0893245863412333,4.525283220728784,3.2572394340873405,3.3661700124181038,1.2655823335607836,2.1796692811826652
4.3802501318477765,2.339131880059016,3.0852958583056638,4.516928751336437,3.2540074760587685,3.354128050274311,1.263424183462567,2.178775325373733
4.3846764239787195,2.3445993233558764,3.081220477191269,4.508527617086761,3.2508706638035942,3.3420696315710057,1.2613013209484636,2.177872191663922
4.389050598079143,2.350086147865891,3.0770996288529173,4.500085276853868,3.2478308109800387,3.3299983133419913,1.259213571969945,2.1769610143871985
4.393367387495924,2.3555917231107335,3.0729345158198096,4.491607240442584,3.244889696950702,3.3179176602049063,1.257160760383735,2.1760429321490156
4.39762154725551,2.3611154109972126,3.0687263565531593,4.483099063889876,3.2420490659380437,3.3058312433457635,1.2551427097246275,2.1751190866363532
4.4018078593417345,2.3666565656217378,3.064476384694075,4.474566344719673,3.2393106261929434,3.2937426395041753,1.2531592449798326,2.1741906214308946
4.405921137894869,2.3722145330722997,3.0601858483026123,4.466014717149306,3.2366760491770474,3.281655429959508,1.2512101943603964,2.173258680827124
4.4099562343337295,2.377788651228676,3.055856009089022,4.457449847246714,3.2341469687595397,3.2695731995182427,1.2492953910651385,2.1723244086569777
4.413908042404372,2.3833782495615203,3.0514881416383037,4.448877428040328,3.2317249804289885,3.257499535502713,1.2474146750325652,2.171388947122512
4.41777150316042,2.388982648931002,3.0470835326291708,4.440303174587298,3.229411640520858,3.245438026741391,1.245567894676358,2.170453435637779
4.421541609880986,2.3946011613856397,3.042643480048477,4.431732819009426,3.22720846546126,3.2333922625608116,1.2437549086001833,2.1695190096806156
4.4252134129324885,2.400233089961925,3.038169292402165,4.423172105508775,3.2251169310274648,3.2213658317792637,1.2419755872876164,2.168586799654372
4.42878202458047,2.405877728485304,3.033662287923742,4.414626785376104,3.2231384716256852,3.2093623217023852,1.240229814762916,2.1676579297589678
4.432242623756575,2.411534361373034,3.0291237937812645,4.406102612005321,3.2212744795866013,3.1973853171208577,1.2385174902183438,2.1667335168700967
4.435590460784463,2.4172022634393624,3.024555145283829,4.397605335926516,3.219526304479064,3.1854383993104682,1.2368385296037003,2.1658146694250164
4.438820862066673,2.4228806997034598,3.0199576850884755,4.389140699869084,3.217895252442383,3.1735251450348243,1.2351928671737264,2.1649024863132573
4.4419292347327834,2.4285689252004863,3.0153327624084056,4.3807144338653385,3.2163825855375325,3.161649125551037,1.2335804569889328,2.163998055770982
4.444911071247686,2.434266184796227,3.0106817322233423,4.372332250404086,3.214989521117606,3.149813905618655,1.2320012743654392,2.1631024542786044
4.447761953977602,2.4399717130057765,3.006005954492898,4.363999839642776,3.213717231217772,3.138023042512128,1.2304553172696935,2.162216745462454
4.450477559710559,2.445684733816795,3.001306793373776,4.355722864686212,3.212566841965059,3.126280085036949,1.228942607654515,2.161341979002358
4.45305366412733,2.4514044605179293,2.9965856164416715,4.347506956938831,3.2115394330083404,3.1145885725495708,1.2274631927334871,2.1604791895477793
4.455486146217858,2.4571300955329916,2.9918437939186933,4.339357711536745,3.21063603696907,3.1029520339810834,1.2260171461912244,2.1596293956453705
4.457770992636885,2.462860830261508,2.987082697907107,4.33128068286537,3.2098576389134394,3.091373986864534,1.2246045693274288,2.158793598680718
4.45990430199105,2.468595844926269,2.9823037016301726,4.3232813801694485,3.2092051758467153,3.079857936365727,1.2232255921330486,2.1579727818368895
4.461882289048518,2.4743343084285128,2.9775081786808033,4.315365263263626,3.2086795362305116,3.0684073743173004,1.2218803742970805,2.1571679090723683
4.463701288861561,2.4800753782113794,2.9726975022787263,4.307537738352786,3.2082815595236993,3.0570257782558943,1.2205691061425346,2.1563799241210355
4.4653577607926325,2.4858182001323,2.9678730445368333,4.299804153971111,3.2080120357475956,3.0457166104622306,1.2192920094897972,2.155609749516747
4.46684829243538,2.4915619083449783,2.9630361757373267,4.292169797047722,3.207871705076032,3.034483317004007,1.2180493384452584,2.1548582856448113
4.468169603423524,2.4973056251916166,2.958188263618248,4.284639889105211,3.207861257450921,3.023329326781533,1.216841380112718,2.1541264098224238
4.469318549122258,2.5030484611060886,2.9533306726709134,4.277219582595946,3.207981332223854,3.0122580505760914,1.2156684552248054,2.1534149754101337
4.470292124198117,2.5087895145287535,2.9484647634487384,4.269913957379858,3.2082325178242934,3.0012728801009825,1.2145309186914488,2.15272481095672
4.471087466063841,2.51452787183364,2.943591891887927,4.262728017346413,3.2086153514548856,2.9903771870551794,1.213429160062393,2.1520567193801203
4.471701858194423,2.5202626072687426,2.938713408640539,4.255666687182684,3.2091303188143327,2.9795743221795146,1.212363603900859,2.1514114771870165
4.472132733309703,2.525992782910152,2.9338306584205487,4.2487348092887185,3.2097778538482773,2.9688676143153314,1.211334710065622,2.1507898337334237
4.472377676418323,2.5317174486307565,2.9289449793635574,4.24193714084086,3.21055833852852,2.958260369465613,1.210342973898899,2.1501925105284294
4.47243442771809,2.5374356420842203,2.924057702400872,4.235278351003032,3.211472102660861,2.947755869858694,1.209388926317601,2.1496202005831977
4.472300885349152,2.543146388704891,2.919170150648608,4.228763018285428,3.2125194237217625,2.937357373014723,1.2084731338057297,2.149073567807339
4.471975107998627,2.548848701724229,2.9142836388124262,4.22239562804941,3.2137005267239886,2.927068110815033,1.2075961983060857,2.148553246454447
4.47145531735759,2.5545415822042954,2.9093994726084462,4.216180570156981,3.2150155841113595,2.9168912885745932,1.2067587570099154,2.1480598406180667
4.470739900433011,2.5602240190887326,2.904518948200803,4.210122136762999,3.216464715682743,2.9068300841176358,1.2059614820437043,2.1475939237786927
4.469827411718011,2.565894989271623,2.8996433516562297,4.204224520248701,3.2180479885454667,2.8968876468565457,1.2052050800529401,2.1471560384017057
4.468716575223352,2.5715534576845074,2.8947739584159784,4.198491811295997,3.219765417098303,2.887067096874086,1.2044902916831821,2.1467466955855374
4.4674062863720945,2.5771983774018037,2.88991203278532,4.19292799710315,3.2216169630441485,2.8773715240089883,1.2038178909590558,2.146366374758898
4.46589561375827,2.582828689764757,2.8850588274407634,4.187536959742596,3.2236025354324287,2.8678039869449905,1.2031886845619895,2.1460155234255867
4.464183800769706,2.5884433245240013,2.880215582955095,4.182322474660653,3.2257219907312105,2.8583675123034102,1.202603511007769,2.145694556955292
4.462270267075192,2.5940412000007242,2.875383527340278,4.177288209316944,3.227975132928894,2.849065093739422,1.2020632397252904,2.1454038584186916
4.460154609976542,2.5996212232663765,2.8705638756082172,4.172437721959182,3.2303617136653138,2.839899691042277,1.2015687700382665,2.145143778465082
4.457836605626504,2.6051822903408057,2.865757829349367,4.1677744605269895,3.2328814323920207,2.8308742292397002,1.2011210300520074,2.1449146352406987
4.4553162101132795,2.6107232864086383,2.860966576329131,4.163301761676598,3.2355339365614006,2.8219915977066825,1.200720975447756,2.144716714345897
4.452593560411802,2.6162430860537156,2.85619129010204,4.159022849916597,3.2383188218442847,2.8132546492788237,1.2003695881872771,2.144550268829252
4.449668975201326,2.621740553511326,2.8514331296436755,4.1549408368434575,3.241235632375615,2.8046661993702866,1.2000678751304557,2.1444155192163845
4.446542955548835,2.627214542937987,2.846693239000352,4.151058720464491,3.244283861027783,2.7962290250963826,1.1998168665685176,2.144312653570961
4.443216185458177,2.632663898698529,2.841972746956523,4.1473793845949585,3.2474629497112786,2.7879458644007467,1.199617614675385,2.144241827585037
4.439689532285209,2.638087455670226,2.8372727667198188,4.1439055983151665,3.2507722897023354,2.7798194151870783,1.1994711918796517,2.1442031646956923
4.435964047018957,2.643484039563697,2.832594395623561,4.140640015472279,3.2542112219972843,2.7718523344554704,1.1993786891598657,2.144196756224664
4.432040964427656,2.648852467260287,2.8279387148465367,4.137585174210884,3.257779037693267,2.7640472374434264,1.1993412142660724,2.1442226615373667
4.427921703066749,2.6541915471655884,2.8233067891497154,4.134743496516352,3.2614749783949746,2.7564066967717915,1.1993598898709161,2.144280908217396
4.42360786514389,2.6595000795787858,2.818699666629585,4.132117287756165,3.265298236647036,2.748933241595891,1.1994358516538923,2.1443714922525894
4.419101236234037,2.6647768570775074,2.8141183784877057,4.12970873620645,3.269247956391667,2.7416293567622474,1.1995702463225981,2.144494378228963
4.414403784836112,2.670020664917878,2.8095639388160696,4.127519912554323,3.273323233451189,2.734497481971227,1.1997642295749922,2.1446494995294807
4.40951766176129,2.67523028144947,2.8050373443978254,4.1255527693706995,3.2775231160349576,2.727540010945941,1.2000189640067611,2.144836758535367
4.404445199341308,2.680404478544862,2.8005395745229302,4.123809140552203,3.281846605270221,2.72075929060764,1.2003356169677994,2.145056026828437
4.399188910443321,2.685542022043507,2.7960715908183174,4.122290740733162,3.286292655756376,2.714157620257793,1.2007153583715844,2.145307145393388
4.39375148727569,2.690641672209587,2.7916343370921735,4.120999164669397,3.290860176142021,2.707737250766977,1.201159358460934,2.1455899248191983
4.3881357999674675,2.6957021842034914,2.787228739191954,4.119935886594942,3.295548029724159,2.7015003837706963,1.2016687855333612,2.1459041454986707
4.382344894903721,2.70072230856647,2.7828557048757068,4.119102259552358,3.3003550350688435,2.6954491708722936,1.2022448036290951,2.14624955782506
4.376381992799587,2.705700791717971,2.778516123696271,4.1184995146971906,3.3052799666525177,2.689585712853172,1.202888570184865,2.146625882384743
4.370250486498088,2.7106363764650747,2.774210866897909,4.1181287605778865,3.3103215555232444,2.6839120588906877,1.20360123365671,2.147032810144857
4.363953938480129,2.7155278025233915,2.7699407873248973,4.117990982393467,3.3154784899810226,2.6784302057841423,1.2043839311151732,2.1474700026346953
4.357496078079264,2.7203738070487193,2.765706719341644,4.118087041232244,3.320749416276398,2.6731420971893587,1.205237785816207,2.1479370921194456
4.350880798398106,2.7251731251787423,2.76150947876385,4.118417673295522,3.3261329393265795,2.6680496228623127,1.2061639047509447,2.1484336817649456
4.344112152926691,2.729924490584043,2.7573498628002513,4.1189834891107235,3.3316276234483446,2.6631546179122747,1.207163376177262,2.1489593457925342
4.337194351864703,2.734626636027733,2.753228650004419,4.119784972739063,3.3372319931070757,2.6584588620649323,1.208237267135851,2.149513629623844
4.330131758149378,2.7392782939330367,2.749146600236103,4.1208224809840335,3.3429445336813233,2.6539640789359487,1.2093866209532826,2.1500960500164235
4.322928883189916,2.743878196958173,2.7451044546315924,4.12209624260838,3.348763692242306,2.6496719353154248,1.210612454734294,2.150706095191912
4.3155903823087005,2.7484250785778515,2.7411029355825898,4.123606357568614,3.354687878347762,2.6455840404637523,1.2119157568452683,2.1513432249590845
4.308121049890038,2.752917673670673,2.7371427467230975,4.125352796276769,3.360715464849558,2.641701945419408,1.213297484390768,2.1520068708343056
4.300525814238782,2.757354719111659,2.7332245729238527,4.127335398899297,3.3668447887145048,2.6380271423193,1.2147585606851063,2.152696436162312
4.292809732153429,2.7617349543691208,2.72934908029393,4.1295538747033875,3.3730741518578666,2.6345610637323396,1.2162998727214611,2.153411296240746
4.284977983220716,2.7660571221050683,2.7255169161892057,4.1320078014616115,3.3794018219890227,2.6313050820069024,1.2179222686418316,2.1541507984526977
4.277035863840929,2.770319968778417,2.7217287092274463,4.134696624926391,3.3858260334687444,2.628260508632841,1.2196265552119696,2.154914262412299
4.26898878099473,2.774522245250321,2.7179850693098766,4.137619658385826,3.392344988177444,2.625428593618628,1.22141349530594,2.155700980128779
4.260842245763364,2.778662707391024,2.7142865876490583,4.14077608231188,3.398956856393714,2.6228105248842,1.223283805405097,2.156510216194143
4.252601866614964,2.782740116687686,2.7106338368029923,4.144164944110673,3.405659777682355,2.6204074276700613,1.225238153116242,2.1573412079989485
4.244273342470665,2.7867532408526676,2.707027370715357,4.147785157983072,3.412451861791029,2.6182203639632617,1.2272771547138615,2.158193165979837
4.235862455565243,2.7907008544317735,2.703467724761843,4.15163550490185,3.4193311895546064,2.616250331940904,1.2294013727117559,2.1590652739017484
4.227375064117975,2.7945817394119614,2.6999554158024917,4.155714632709874,3.426295813806293,2.614498265431845,1.2316113134697972,2.1599566891770463
4.218817094830072,2.7983946858280264,2.696490942239905,4.16002105634206,3.4333437602946195,2.6129650333972547,1.2339074248417488,2.160866543223034
4.210194535225456,2.802138492367737,2.6930747840831026,4.164553158172389,3.440473028605412,2.6116514394306725,1.236290093869984,2.161793941858646
4.201513425851598,2.805811966974892,2.689707403016781,4.169309188485919,3.447681593087868,2.610558221278164,1.2387596445327052,2.1627379657405728
4.192779852356875,2.8094139274498326,2.6863892424756712,4.174287266074313,3.4549674037838263,2.6096860503791697,1.241316335548983,2.163697670838946
4.18399993746058,2.8129432020470366,2.683120727723699,4.179485378951936,3.462328387359326,2.609035531428605,1.2439603582467322,2.164672088952852
4.175179832831567,2.8163986300695187,2.6799022659376677,4.184901385188078,3.469762448037497,2.608607201960723,1.2466918344986297,2.165660228266213
4.16632571089148,2.8197790624598467,2.6767342462952017,4.190533013849709,3.477267468531836,2.6084015319552116,1.2495108147309162,2.1666610739448484
4.157443756558404,2.8230833623875857,2.6736170400666643,4.196377866048328,3.4848413109789083,2.608418923465931,1.2524172760100247,2.1676735887757044
4.148540158946458,2.8263104058329946,2.6705510007107955,4.202433416083997,3.4924818178695034,2.6086597102726494,1.2554111202120508,2.168696713849244
4.139621103036595,2.8294590821667986,2.667536463973765,4.2086970126794,3.500186812977303,2.609124157556078,1.2584921722802365,2.169729369285731
4.13069276133355,2.8325282947258335,2.6645737479913527,4.215165880296783,3.507954102284109,2.609812461596473,1.261660178575737,2.170770455005667
4.121761285523936,2.8355169613843256,2.6616631533939286,4.221837120531387,3.5157814749008107,2.610724749496016,1.264914805326885,2.171818851543992
4.1128327981512,2.8384240151205447,2.65880496341388,4.22870771357641,3.5236667039833596,2.6118610789251924,1.2682556371819131,2.172873420907093
4.103913384324658,2.8412484045785344,2.655999443995137,4.235774519756235,3.5316075476432616,2.613221437893357,1.2716821758697068,2.173933007471316
4.095009083481941,2.84398909462464,2.6532468439044563,4.243034281126133,3.539601749852308,2.6148057445437303,1.2751938389726696,2.174996438921479
4.086125881226004,2.8466450668985397,2.650547394844247,4.250483623137175,3.547647041341521,2.6166138469730584,1.2787899588152793,2.176062527227826
4.0772697012587775,2.849215320358532,2.6479013115668653,4.258119056364783,3.5557411404944737,2.618645523076149,1.2824697814714914,2.177130069659793
4.0684463974336245,2.8516988718208047,2.645308791990408,4.265936978298772,3.5638817542352084,2.6209004804154614,1.2862324658938324,2.1781978498348447
4.0596617459483175,2.854094756492489,2.642770017316116,4.273933675192394,3.5720665789110253,2.6233783561158375,1.2900770831667814,2.1792646388004155
4.050921437699843,2.8564020284983087,2.6402851521475377,4.28210532396808,3.5802933011704834,2.6260787167844106,1.2940026158867353,2.1803291961465394
4.042231070821823,2.8586197614006736,2.637854344611606,4.290447994177922,3.5885595988370156,2.629001058455664,1.29800795767048,2.181390271146168
4.033596143424443,2.8607470487130464,2.6354777264818083,4.298957650017702,3.5968631417786603,2.6321448065616297,1.3020919127936295,2.182446603919818
4.025022046555343,2.862783004406404,2.6331554133036157,4.307630152394277,3.605201592774434,2.6355093159272434,1.3062531959600405,2.183496926621287
4.016514057398041,2.8647267634085516,2.630887504522303,4.316461261047298,3.6135726083778574,2.6390938707909557,1.310490432202704,2.184539964641937
4.008077332722288,2.8665774820959786,2.6286740836132445,4.325446636726768,3.621973839778188,2.642897684850773,1.3148021569161596,2.1855744378320257
3.9997169025983217,2.868334338777922,2.6265152182147076,4.334581843428032,3.6304029336598465,2.646919901335954,1.319186816020207,2.186599061738331
3.991437664384577,2.869996534172269,2.62441096026309,4.343862350685655,3.638857533060479,2.651159593104617,1.3236427662546555,2.18761254885735
3.9832443769961574,2.8715632918729264,2.6223613461305173,4.353283535928125,3.6473352782280357,2.65561576276751,1.3281682756050288,2.188613609902914
3.9751416554595758,2.8730338588082858,2.620366396764664,4.3628406868960194,3.6558338074771206,2.6602873428381857,1.332761523859294,2.1896009550864526
3.9671339657581823,2.874407505690407,2.618426117830688,4.372529004127191,3.6643507580447916,2.6651731959097655,1.3374206032957656,2.1905732954076345
3.959225619972283,2.8756835274545316,2.6165404998551565,4.382343603513531,3.6728837669458976,2.6702721148584168,1.3421435195022697,2.191529343952848
3.9514207717180567,2.876861243688574,2.6147095183719506,4.3922795189349895,3.681430471827982,2.6755828230736,1.3469281923265735,2.1924678171987915
3.9437234118897018,2.8779399990522134,2.612933134070119,4.402331704977517,3.689988511825769,2.6811039747150547,1.3517724569579594,2.193387436318245
3.9361373647094267,2.8789191636852016,2.611211292943739,4.412495039742041,3.698555528415174,2.6868341549964323,1.3566740651396727,2.1942869284849595
3.928666284089765,2.8797981336044494,2.609543926443801,4.422764327751593,3.707129166266774,2.6927718804953824,1.3616306865116936,2.1951650281747606
3.9213136503119808,2.880576331089427,2.607930951632124,4.433134302963121,3.715707074098658,2.698915599489846,1.366639910082937,2.196020478460296
3.9140827670233427,2.881253205055421,2.606372271337205,4.443599631889729,3.7242869055287056,2.7052636923202087,1.3716992458315844,2.1968520322970413
3.906976758554828,2.8818282314142762,2.604867774311888,4.454154916838206,3.73286631992645,2.7118144717769366,1.3768061264318625,2.197658453797902
3.8999985675596087,2.882300913422302,2.603417335392656,4.464794699265778,3.741442983264856,2.7185661835133024,1.3819579091051737,2.198438519493282
3.893150952971711,2.8826707820151296,2.602020815660375,4.475513463259382,3.7500145689723956,2.725517006482855,1.387151877593028,2.199191019573222
3.8864364882835343,2.8829373961292624,2.600678062602328,4.486305639140132,3.758578758785795,2.7326650534014387,1.392385244248725,2.199914759108629
3.8798575601403846,2.883100343010051,2.599388910275471,4.497165607195068,3.767133243603781,2.740008371233659,1.3976551522443321,2.2006085592497704
3.8734163672494666,2.8831592385057494,2.5981531794708768,4.508087701537299,3.775675724342102,2.7475449417038074,1.4029586778892589,2.2012712584016003
3.8671149195996963,2.8831137273473026,2.5969706778794053,4.519066214094527,3.7842039127900287,2.7552726818312787,1.4082928330566087,2.2019017133766137
3.8609550379873383,2.882963483413498,2.5958412002586075,4.530095398724651,3.7927155324684754,2.763189444490469,1.4136545677134447,2.2024988005262705
3.854938353841147,2.8827082099811787,2.5947645286008876,4.541169475456173,3.801208319489826,2.771293018995147,1.4190407725510568,2.203061416851815
3.849066309339708,2.8823476399602663,2.5937404323028925,4.552282634850473,3.8096800234195047,2.7795811317072534,1.4244482817112563,2.203588481094842
3.8433401578134165,2.88188153611339,2.5927686683361073,4.563429042482394,3.8181284081392146,2.7880514466701123,1.4298738756046983,2.2040789348072978
3.837760964424006,2.8813096912599896,2.591848981418563,4.574602843534908,3.826551252711711,2.7967015662659986,1.4353142838172377,2.2045317433998584
3.8323296071151556,2.8806319284647923,2.5909811041875432,4.5857981675029516,3.83494635224694,2.805529031898017,1.4407661881002267,2.204945897166866
3.827046777827726,2.8798481012105954,2.590164757373113,4.5970091330014275,3.843311518769326,2.8145313246962083,1.4462262254404463,2.2053204122853196
3.8219129839728416,2.878958093555349,2.5893996499722163,4.608229852672486,3.8516445820859126,2.8237058662477694,1.4516909912050715,2.2056543317848605
3.816928550155595,2.877961820273557,2.5886854794230882,4.619454438187257,3.8599433906550398,2.833050019351226,1.4571570423568934,2.2059467264852635
3.812093620142023,2.8768592269820448,2.5880219317796898,4.630677005337059,3.8682058124551695,2.842561088794369,1.4626209007349753,2.2061966958975376
3.8074081590620352,2.8756502902501864,2.587408681885892,4.6418916792088725,3.8764297358534385,2.852236322155716,1.46807905639605,2.206403369084574
3.8028719558408466,2.87433501769479,2.586845393549198,4.653092599439686,3.8846130704735202,2.862072910629251,1.4735279710122369,2.206565905477453
3.7984846258512626,2.872913448059909,2.586331719713825,4.664273925543589,3.8927537480623093,2.8720679898721926,1.4789640813210012,2.2066834956442705
3.7942456137791654,2.871385651281979,2.585867302633078,4.675429842304223,3.9008497233549497,2.8822186408755326,1.4843838026236,2.2067553620094396
3.7901541966949885,2.8697517285407295,2.5854517740410166,4.686554565223348,3.9088989749376246,2.8925218908571315,1.4897835323283661,2.2067807595225997
3.7862094873243657,2.8680118122963174,2.5850847553234915,4.697642346014532,3.91689950610752,2.9029747141772173,1.495159653535085,2.206758976277012
3.7824104375112078,2.866166066313116,2.5847658576887174,4.708687478129745,3.924849345729303,2.9135740332762166,1.5005085386565098,2.2066893340777116
3.778755841865953,2.8642146856704898,2.58449468233758,4.7196843023062724,3.9327465490874505,2.9243167196348985,1.505826553072929,2.2065711889595767
3.775244341591323,2.8621578967608294,2.5842708206338516,4.7306272121213935,3.9405891987337314,2.935199594756857,1.511110058815624,2.206403931655111
3.7718744284779024,2.859995957275039,2.584093854274476,4.741510659542459,3.9483754053291618,2.9462194311733625,1.51635541827492,2.2061869880112277
3.76864444906226,2.857729156175647,2.58396335546002,4.7523291604599605,3.9561033084797885,2.95737295347062,1.5215589979282629,2.205919819354107
3.765552608940766,2.8553578136576734,2.58387888706535,4.763077300191008,3.963771077565619,2.9686568393394923,1.5267171720834296,2.2056019228013324
3.7625969772325094,2.8528822810973926,2.583840002810559,4.773749738940268,3.9713769125619596,2.980067720647719,1.531826326631689,2.205232831520889
3.7597754911848096,2.850302940989107,2.5838462474321906,4.784341217204828,3.9789190448523524,2.991602184534702,1.536882862805587,2.2048121149370212
3.7570859609149103,2.8476202068700553,2.5838971568548224,4.794846561108691,3.986395738032216,3.003256774528878,1.5418832009359817,2.2043393788833425
3.7545260742818076,2.844834523233577,2.5839922583630957,4.805260687651914,3.9938052887022306,3.0150279916876723,1.5468237842030381,2.2038142657040063
3.7520934018830054,2.8419463654307093,2.5841310707742906,4.815578609859521,4.001146027250483,3.026912295759989,1.5517010823761614,2.2032364543041267
3.7497854021724812,2.83895623956035,2.584313104611481,4.825795441816539,4.008416318622301,3.038906106371136,1.5565115955382494,2.202605660151038
3.747599426697972,2.835864682348117,2.584537862277272,4.835906403577912,4.015614563076631,3.051005804230061,1.561251857789958,2.201921635228347
3.7455327254572643,2.832672261014007,2.58480483822806,4.845906825944665,4.022739196927726,3.0632077323587628,1.5659184409298046,2.201184167945275
3.7435824523739143,2.8293795731288687,2.585113519148727,4.855792155100144,4.029788693270845,3.075508197343644,1.570507958105915,2.2003930830043372
3.741745670892487,2.8259872464597278,2.585463384127634,4.86555795710195,4.0367615626906215,3.0879034706085338,1.5750170674352353,2.199548241230727
3.7400193596923517,2.8224959388039794,2.5858539048318394,4.8751999222264235,4.0436563539508334,3.1003897897089883,1.5794424755861465,2.1986495393666017
3.738400418517565,2.8189063378125363,2.5862845456824406,4.884713869162819,4.050471654664311,3.112963359647385,1.5837809413205828,2.1976969098328114
3.736885674118854,2.8152191608020725,2.586754764030006,4.894095749053491,4.057206091941886,3.12562035420823,1.5880292789919437,2.19669032045983
3.7354718863021366,2.811435154556583,2.5872640103300792,4.903341649374778,4.063858333019354,3.138356917313027,1.5921843619952198,2.1956297741889754
3.7341557540764616,2.8075550951185786,2.5878117283187803,4.912447797650898,4.070427085861571,3.151169164394034,1.5962431261659125,2.194515308744344
3.732933921892677,2.8035797875702837,2.5883973551884663,4.921410564991051,4.076911099743091,3.1640531837862627,1.6002025731244947,2.193346996275376
3.7318029859624153,2.7995100658052925,2.5890203217634373,4.930226469437807,4.0833091658050416,3.177005038137082,1.604059773563342,2.1921249429697327
3.7307595006452523,2.7953467922912054,2.5896800526756176,4.938892179113158,4.089620117588244,3.1900207658327933,1.6078118704731272,2.1908492886365662
3.729799984889977,2.79109085782376,2.5903759665401536,4.947404515147515,4.095842831542895,3.20309638244156,1.6114560823055786,2.1895202062611347
3.7289209287141807,2.78674318127299,2.5911074761308295,4.955760454376514,4.101976227515209,3.2162278821720194,1.6149897060692526,2.188137901532532
3.72811879970501,2.7823047093219215,2.591873988555193,4.963957131791664,4.108019269211587,3.229411239346968,1.6184101203546803,2.186702612346645
3.7273900495234185,2.777776416198309,2.5926749054292415,4.971991842733486,4.113970964640863,3.2426424098914377,1.6217147882849503,2.1852146082863135
3.726731120394718,2.773159303399882,2.593509623051501,4.97986204481963,4.119830366535213,3.255917332834503,1.624901260387553,2.1836741900804406
3.726138451569319,2.76845439941357,2.59437753257627,4.9875653596040594,4.125596572750338,3.269231931824085,1.627967177383239,2.1820816890436934
3.7256084857387504,2.763662759429171,2.595278020185796,4.995099573966169,4.131268726645477,3.282582116653962,1.6309102728878453,2.1804374664984483
3.7251376753928804,2.758785465047885,2.596210467261142,5.002462641230776,4.136846017443777,3.2959637848021446,1.6337283760235035,2.1787419131807306
3.7247224891045323,2.753823623986107,2.5971742505514763,5.009652682022,4.142327680573508,3.3093728229796864,1.6364194139361732,2.1769954486319074
3.7243594177275288,2.7487783697748034,2.598168742341627,5.0166679848561495,4.147712997990495,3.322805108688981,1.6389814142168793,2.1751985205776316
3.7240449804938978,2.743650861454723,2.5991933106177574,5.023507006480324,4.153001298482146,3.3362565117904945,1.6414125072244106,2.173351604294968
3.7237757309959765,2.738442283267602,2.6002473192311153,5.030168371963852,4.158191957953295,3.3497228960769037,1.6437109283075593,2.1714552019678135
3.7235482630395826,2.733153844343476,2.601330128059844,5.036650874549229,4.163284399694081,3.363200120853544,1.6458750199252268,2.1695098420300263
3.7233592163551403,2.7277867783840963,2.6024410931689066,5.042953475268296,4.168278094630049,3.376684042524144,1.6479032336627362,2.1675160784953147
3.723205282154083,2.7223423433424374,2.603579566968159,5.049075302328923,4.173172561554613,3.3901705161808633,1.6497941321425236,2.1654744902730885
3.7230832085178753,2.7168218210982187,2.6047448983686587,5.055015650277724,4.177967367344106,3.4036553971976753,1.6515463908272365,2.163385680469837
3.7229898056068973,2.71122651712933,2.6059364329372525,5.060773978945102,4.18266212715562,3.417134542826164,1.6531587997133577,2.1612502756758323
3.7229219506766156,2.7055577601790093,2.6071535130494436,5.066349912179374,4.187256504607915,3.430603813792837,1.654630264913807,2.159068925236851
3.722876592889024,2.6998169019186204,2.6083954780405083,5.071743236376119,4.191750211945687,3.4440590758970178,1.6559598101284025,2.1568423005103394
3.722850757908063,2.6940053166058555,2.609661664354787,5.076953898807676,4.196143010187503,3.457496201608419,1.6571465780014327,2.154571094105247
3.7228415522682203,2.688124400738226,2.6109514056930805,5.081982005756306,4.200434709257746,3.470911071663506,1.6581898313656929,2.1522560191049562
3.7228461675056224,2.6821755727017136,2.6122640331581035,5.086827820453507,4.204625168102865,3.4842995766597316,1.6590889543721805,2.1498978082733227
3.722861884040722,2.6761602724144686,2.6135988753979973,5.091491760827032,4.208714294792179,3.497657618646795,1.6598434535042812,2.147497213244607
3.7228860748015355,2.670079960965419,2.6149552587479397,5.095974397056482,4.212702046603421,3.510981112714039,1.660452958474928,2.1450550036985576
3.722916208576817,2.663936120247589,2.61633250736996,5.100276448937772,4.216588430093078,3.524265988573145,1.6609172230049363,2.142571966522013
3.722949853089874,2.6577302525858912,2.617729943391026,5.104398783056377,4.220373501151583,3.537508192135244,1.661236125480428,2.1400489049580758
3.7229846777857185,2.651463880359059,2.619146887039431,5.108342409768917,4.2240573650433415,3.550703687081676,1.6614096694870413,2.1374866377435833
3.723018456326685,2.645138545615369,2.6205826567794985,5.112108479992135,4.227640176431604,3.563848456427537,1.6614379842184879,2.1348859982354575
3.723049068794204,2.63875580968174,2.6220365694445773,5.11569828179728,4.231122139388149,3.576938504077242,1.6613213247571694,2.132247833526886
3.723074503596963,2.6323172527658483,2.623507940368346,5.1191132368064665,4.234503507387759,3.589969856371243,1.6610600722248494,2.1295730035551474
3.7230928590881964,2.625824473551008,2.624996083514489,5.122354896385666,4.237784583287374,3.6029385636230473,1.6606547338016748,2.126862380204069
3.723102344896941,2.619279088783717,2.6265003116048313,5.125424937627054,4.24096571928986,3.6158407016458116,1.6601059426119267,2.1241168464049767
3.72310128297947,2.6126827328539317,2.6280199362460146,5.128325159111927,4.244047316892167,3.628672373267863,1.6594144574746839,2.1213372952402154
3.72308810839797,2.6060370573682654,2.629554268054762,5.131057476444755,4.247029826817757,3.6414297098367188,1.6585811625172813,2.118524629052905
3.72306136983405,2.59934373071636,2.6311026167817877,5.133623917549619,4.249913748933034,3.6541088727112703,1.6576070666491673,2.1156797585658342
3.723019729845084,2.5926044376307362,2.6326642914343354,5.136026617722602,4.252699632147506,3.666706054741934,1.6564933028938311,2.112803602011547
3.7229619648713683,2.5858208787404102,2.634238600397405,5.13826781443767,4.255388074297275,3.6792174817385574,1.6552411275767966,2.1098970842748646
3.7228869650014116,2.578994770118542,2.635824851553688,5.140349841909038,4.257979722011349,3.6916394139259157,1.6538519193682537,2.1069611360483456
3.7227937335013213,2.5721278428243552,2.6374223524022566,5.1422751254189825,4.260475270560186,3.703968147386634,1.6523271781794417,2.1039966930004357
3.722681386112698,2.565221842439547,2.6390304101760518,5.144046175425437,4.262875463685821,3.716200015491404,1.6506685239123107,2.101004694955435
3.722549150121881,2.5582785285994394,2.64064833195825,5.145665581467683,4.265181093412974,3.728331390316337,1.6488776950621804,2.0979860850841763
3.7223963632019688,2.5512996745191154,2.6422754247976443,5.147136005890842,4.267392999840558,3.7403586840472856,1.646956547173218,2.094941809104881
3.7222224720276005,2.544287066514839,2.6439109958232345,5.14846017741097,4.2695120709130245,3.7522783503709385,1.644907051146696,2.091872814495087
3.7220270306611423,2.5372425035209845,2.645554352358325,5.149640884542291,4.271539242170945,3.764086885852484,1.6427312914022514,2.0887800497172644
3.7218096987080265,2.5301677966027403,2.6472048020344654,5.1506809689069435,4.273475496480139,3.775780831299598,1.6404314638926873,2.0856644634620536
3.721570239239179,2.5230647684648018,2.648861652905587,5.151583318445903,4.27532186373859,3.787356773112533,1.6380098739732654,2.082527003913456
3.721308516479867,2.515935252956237,2.650524213562632,5.152350860548166,4.277079420560434,3.798811344620006,1.6354689341267579,2.079368618039984
3.7210244932666705,2.5087810945716975,2.6521917932489303,5.152986555114446,4.278749289936232,3.810141227400557,1.6328111615459193,2.0761902509150976
3.7207182282771383,2.501604147949102,2.65386370197651,5.153493387571414,4.280332640868782,3.821343152588953,1.6300391755753822,2.0729928450694857
3.720389873039609,2.49440627736391,2.655539250643433,5.153874361852731,4.281830687983646,3.832413902167145,1.6271556950154291,2.069777339877057
3.7200396687335915,2.487189356220082,2.657217751152226,5.154132493363627,4.283244691113577,3.843350310239175,1.6241635352904598,2.066544670975891
3.719667942793703,2.479955266537801,2.658898516529394,5.154270801946731,4.284575954856013,3.854149264289386,1.6210656054852044,2.0632957697249164
3.719275105331965,2.4727058984380363,2.6605808610460113,5.154292304868092,4.2858258281028405,3.86480770642319,1.6178649052517529,2.0600315626966212
3.7188616453938805,2.4654431496239906,2.662264100339318,5.154200009843691,4.286995703541688,3.875322634589593,1.6145645215904947,2.0567529712055848
3.718428127063105,2.458168924859457,2.663947551535256,5.153996908128111,4.288087017128072,3.8856911037845854,1.611167625508246,2.053460910872272
3.717975185428276,2.450885135444093,2.6656305333718424,5.15368596768878,4.289101247527695,3.895910227234379,1.60767746855731,2.050156291221506
3.7175035224241664,2.4435936986855644,2.667312366323281,5.153270126490996,4.290039915528209,3.9059771775573764,1.6040973792599347,2.0468400153152824
3.7170139025582554,2.4362965373685177,2.6689923727246625,5.152752285920732,4.29090458341971,3.9158891879036117,1.600430759423457,2.0435129794198628
3.716507148532998,2.428995579220238,2.670669876897108,5.152135304373256,4.291696854343151,3.9256435530703278,1.596681080352095,2.0401760727071894
3.7159841367737414,2.4216927563728703,2.672344205273134,5.151421991035648,4.292418371605784,3.9352376305922845,1.592851878961798,2.0368301769908217
3.715445792872635,2.4143900048220455,2.6740146865220273,5.15061509989038,4.293070817962746,3.9446688418053473,1.5889467538049564,2.0334761664967624
3.714893086959675,2.407089263881765,2.6756806516750054,5.149717323965709,4.293655914863943,3.9539346728819127,1.5849693610121816,2.0301149076697502
3.714327029013034,2.3997924756354054,2.677341434249976,5.148731289856895,4.294175421665553,3.963032675836652,1.5809234101587455,2.0267472590156395
3.7137486641214226,2.392501584382666,2.6789963703758213,5.147659552540287,4.2946311348056625,3.971960469501078,1.5768126600633574,2.0233740709804673
3.713159067711795,2.385218536082277,2.6806447989161963,5.146504590500514,4.295024886943695,3.9807157404653055,1.5726409145269404,2.01999618586684
3.7125593407563393,2.3779452777902583,2.6822860615929414,5.145268801189065,4.295358546063397,3.989296243985372,1.568412018019047,2.0166144377883732
3.7119506049737008,2.370683757093511,2.6839195031092515,5.143954496830676,4.295634014539177,3.9976998048543884,1.5641298513196584,2.0132296526627367
3.7113339980405247,2.363435921538481,2.685544471272854,5.142563900591796,4.29585322816551,4.005924318235835,1.5597983271241387,2.0098426482434264
3.7107106688303784,2.3562037180546374,2.687160317119509,5.141099143123086,4.2960181551491825,4.013967750457357,1.5554213856190324,2.0064542341897673
3.7100817726977153,2.34898909237252,2.688766395037228,5.139562259485389,4.29613079506415,4.021828139763572,1.5510029900361195,2.003065212174188
3.7094484668244267,2.3417939884361685,2.6903620628916065,5.137955186466029,4.296193177769016,4.02950359702654,1.5465471221918001,1.9996763760254381
3.7088119056457627,2.334620347809817,2.691946682152646,5.136279760290068,4.29620736228734,4.036992306412759,1.542057778018577,1.9962885119061797
3.708173236371132,2.3274701090787633,2.69351961802343,5.134537714729025,4.296175435651197,4.044292526005652,1.5375389630952907,1.9929023985232903
3.7075335946138877,2.3203452072443684,2.6950802395709776,5.132730679607885,4.29609951170847,4.0514025883827305,1.5329946881828336,1.9895188073692935
3.7068941001431472,2.3132475731131503,2.6966279198595866,5.13086017970953,4.295981729894365,4.058320901146797,1.5284289647721774,1.986138502993583
3.706255852770065,2.306179132680063,2.6981620360869174,5.128927634073938,4.295824253967567,4.065045947410775,1.523845800651657,1.9827622433023075
3.705619928380531,2.299141806506206,2.6996819697230676,5.126934355687411,4.295629270711503,4.0715762862360005,1.519249195500452,1.979390779885954
3.7049873751258224,2.2921375090914022,2.701187106652855,5.124881551555119,4.295398988601165,4.077910553023949,1.5146431365151611,1.9760248583737123
3.704359209782067,2.2851681482422257,2.7026768373215417,5.122770323148687,4.29513563643614,4.0840474598614716,1.5100315940761877,1.9726652188136402
3.7037364142890086,2.2782356244361117,2.704150556884195,5.120601667219405,4.294841461940637,4.089985795819681,1.5054185174602916,1.969312596077556
3.7031199324788786,2.2713418301821773,2.7056076653588224,5.118376476966614,4.294518730331411,4.095724427206653,1.500807830605237,1.9659677202894152
3.702510667007053,2.2644886493793726,2.7070475677833503,5.116095543549717,4.294169722854627,4.101262297774235,1.4962034279319838,1.962631317275632
3.7019094764973572,2.25767795667253,2.7084696743764622,5.113759557931025,4.293796735292639,4.106598428879401,1.4916091702295575,1.9593041090352208
3.7013171729155503,2.2509116168068237,2.7098734007022394,5.111369113035245,4.293402076441779,4.1117319196007305,1.4870288806075438,1.9559868142269374
3.7007345191844223,2.244191483981148,2.711258167838503,5.108924706209799,4.292988066562091,4.116661946810737,1.4824663405210219,1.9526801486700658
3.700162227053188,2.237519401200855,2.712623402548711,5.106426741968555,4.292557035799934,4.121387765204848,1.4779252858725072,1.9493848258554138
3.699600955232575,2.230897199630328,2.7139685374572586,5.103875535000223,4.292111322584336,4.125908707287852,1.4734094031950897,1.9461015574634448
3.6990513078054628,2.224326697945879,2.71529301122801,5.101271313422077,4.291653271997943,4.130224183318678,1.4689223259206892,1.9428310538867937
3.6985138329210825,2.2178097016895095,2.716596268745949,5.098614222260032,4.291185234123479,4.134333681214306,1.464467630737232,1.9395740247544442
3.6979890217789317,2.2113480026240726,2.717877761301828,5.09590432713699,4.290709562366782,4.138236766413629,1.4600488340386275,1.9363311794545053
3.6974773079066754,2.204943378090389,2.719136946779651,5.093141618152005,4.29022861175775,4.141933081701965,1.455669388471536,1.9331032276519653
3.696979066734681,2.1985975903668455,2.7203732898468154,5.090326013933104,4.289744737230734,4.145422346996893,1.451332679582999,1.9298908797973862
3.6964946154683327,2.192312386031963,2.7215862621466624,5.087457365846614,4.28926029188616,4.148704359095885,1.4470420225730096,1.9266948476223795
3.696024213258099,2.1860894953303465,2.7227753424931738,5.084535462345747,4.288777625235282,4.151778991386182,1.442800659155962,1.9235158446180116
3.695568061666398,2.179930631542413,2.723940017067532,5.08156003344127,4.288299081430011,4.154646193517246,1.4386117545346844,1.9203545864928013
3.6951263054297114,2.1738374903582285,2.725079779616332,5.078530755278033,4.287826997479806,4.15730599103616,1.4344783944904123,1.9172117916074956
3.694699033513979,2.16781174925583,2.726194131651214,5.075447254803307,4.287363701457636,4.159758484986347,1.4304035825917172,1.9140881813841333
3.694286280460721,2.161855066884442,2.727282582649806,5.072309114515719,4.286911510697066,4.162003851470134,1.4263902375251154,1.9109844806870497
3.6938880280204076,2.1559690824530398,2.72834465025785,5.069115877285821,4.28647272998255,4.164042341175651,1.4224411905497771,1.9079014181733769
3.693504207068538,2.150155415124753,2.729379860492397,5.065867051240676,4.286049649735051,4.165874278868626,1.418559183078417,1.9048397266103678
3.6931346997990278,2.1444156634176084,2.730387747945902,5.062562114705948,4.2856445441951365,4.167500062849594,1.4147468643861099,1.9018001431566123
3.692779342188897,2.138751404612094,2.7313678559909778,5.059200521200269,4.285259669605708,4.168920164377071,1.4110067894484668,1.8987834096040723
3.6924379267280565,2.1331641941660155,2.7323197369855152,5.055781704477982,4.284897262396507,4.170135127057192,1.4073414169102743,1.8957902725779303
3.692110205407989,2.1276555651370743,2.733242952477776,5.0523050836169485,4.284559537372484,4.1711455662003205,1.4037531071854201,1.8928214836913957
3.6917958929631878,2.1222270276135586,2.734137073411017,5.0487700681479115,4.2842486859080635,4.171952168145114,1.4002441206886957,1.889877799652901
3.691494670358913,2.116880068153522,2.7350016803271155,5.0451760632209535,4.283966874149288,4.172555689550508,1.396816616200085,1.886959982323618
3.691206188517978,2.1116161492327734,2.735836363568621,5.041522474803273,4.283716241225759,4.17295695665618,1.3934726493624472,1.8840687987239009
3.690930072277939,2.106436708701975,2.736640723478638,5.037808714900951,4.283498897474263,4.173156864512011,1.3902141713139156,1.8812050209878737
3.690665924568325,2.101343159253082,2.7374143705979783,5.034034206795826,4.283316922675857,4.173156376177095,1.3870430274565577,1.8783694262656117
3.690413330795719,2.0963368878953315,2.7381569258590246,5.030198390287217,4.283172364308167,4.172956521888845,1.3839609563627613,1.8755627965721882
3.690171863422657,2.0914192554409383,2.738868020775833,5.026300726927385,4.283067235814589,4.172558398202673,1.380969588820481,1.872785918582485
3.689941086724528,2.0865915960006247,2.7395472976300903,5.022340705239539,4.283003514892076,4.17196316710278,1.3780704470181453,1.8700395833702446
3.6897205617070563,2.081855216489081,2.7401944096526427,5.018317845907423,4.282983141799201,4.171172055084495,1.3752649438696911,1.8673245860895697
3.6895098511654263,2.0772113961404353,2.7408090212004215,5.014231706925696,4.283008017686159,4.170186352208581,1.3725543824798943,1.8646417255971708
3.6893085248647832,2.0726613860337566,2.7413908079286253,5.010081888699686,4.283080002948333,4.169007411127865,1.3699399557497605,1.8619918040141226
3.689116164820417,2.0682064086286216,2.7419394569579914,5.005868039082251,4.283200915605084,4.1676366460864225,1.3674227461212394,1.8593756262267687
3.688932370654754,2.0638476573107547,2.7424546670369603,5.001589858334683,4.283372529705474,4.166075531891548,1.3650037254600547,1.8567939993275568
3.6887567650071063,2.0595862959477738,2.7429361486984987,4.997247103998258,4.2835965737627735,4.164325602858665,1.3626837550752358,1.8542477319978858
3.688588998971069,2.0554234584550612,2.743383624411299,4.992839595662952,4.28387472921961,4.162388451729475,1.3604635858741547,1.8517376338361111
3.6884287575332806,2.051360248371838,2.7437968287250634,4.988367219619809,4.284208628945759,4.160265728563712,1.3583438586523369,1.8492645146343634
3.688275764985924,2.0473977384475424,2.744175508409523,4.983829933383049,4.284599855770416,4.15795913960498,1.35632510451768,1.8468291836077615
3.68812979028395,2.043536970238659,2.7445194225868583,4.979227770067425,4.285049941050851,4.1554704461212175,1.354407745448703,1.8444324485791912
3.687990652316869,2.0397789537161697,2.7448283428571596,4.9745608426058565,4.285560363279158,4.152801463220255,1.3525920949860617,1.8420751151223462
3.687858225064547,2.0361246668837834,2.7451020534166415,4.969829347792417,4.2861325467287825,4.1499540586408745,1.350878359056023,1.8397579856653072
3.687732442606923,2.0325750554070714,2.7453403511683723,4.965033570136479,4.286767860142293,4.146930151519716,1.3492666369239137,1.8374818585565815
3.687613303959031,2.029131032253595,2.7455430458253294,4.960173885515168,4.28746761546181,4.143731711134286,1.3477569222749082,1.835247527095417
3.6875008777046996,2.0257934773440853,2.7457099600056276,4.9552507646134725,4.28823306660337,4.14036075562231,1.3463491044188118,1.8330557785283346
3.6873953064043308,2.022563237214691,2.7458409293198036,4.950264776143934,4.289065408276432,4.136819350677663,1.3450429696148438,1.830907393014133
3.687296810753329,2.0194411246902733,2.7459358024500715,4.94521658983995,4.289965774849691,4.133109608223178,1.343838202511795,1.828803142559714
3.68720569346793,2.0164279185687093,2.7459944412215274,4.940106979217862,4.290935239264266,4.129233685060687,1.3427343876983713,1.8267437899288557
3.6871223428749254,2.0135243633160935,2.7460167206652963,4.934936824102915,4.291974811995255,4.125193781498805,1.3417310113580465,1.8247300875256844
3.687047236182001,2.0107311687727365,2.746002529073595,4.929707112913405,4.293085440062507,4.120992139959048,1.3408274630223649,1.8227627762544212
3.686980942406924,2.0080490098698003,2.745951768046671,4.924418944696646,4.294268006091373,4.116631043561121,1.3400230374164241,1.820842584357349
3.686924124946487,2.005478526356425,2.745864352531617,4.919073530910064,4.295523327424059,4.112112814688343,1.3393169363902993,1.8189702262335925
3.686877543769757,2.003020322537203,2.7457402108530338,4.913672196940301,4.296852155282141,4.107439813534474,1.3387082709305467,1.8171464012418086
3.686842057224446,2.0006749670199007,2.7455792847355673,4.908216383352376,4.298255173980747,4.1026144366334165,1.3381960632465166,1.8153717924898203
3.686818623449512,1.9984429924733964,2.745381529318321,4.902707646859699,4.299733000194814,4.097639115373538,1.3377792489268545,1.8136470656138302
3.6868083013911894,1.9963248953958994,2.7451469131611916,4.897147661005032,4.301286182277852,4.092516314498543,1.3374566791620572,1.8119728675492355
3.6868122514230226,1.9943211358936341,2.744875418243173,4.891538216543204,4.302915199633562,4.087248530596919,1.3372271230292834,1.8103498252945678
3.686831735573074,1.9924321374702298,2.7445670399526727,4.885881221519302,4.30462046214062,4.081838290582017,1.3370892698358032,1.8087785446696762
3.686868117363055,1.9906582868271374,2.7442217870698613,4.880178701040291,4.306402309631014,4.076288150164726,1.3370417315174223,1.8072596090690922
3.6869228612647276,1.9889999336753945,2.7438396817409942,4.874432796742254,4.308261011422278,4.070600692320666,1.337083045087948,1.805793578211406
3.686997531778712,1.987457390559089,2.7434207594445894,4.8686457659587035,4.310196765904124,4.064778525753727,1.3372116751354546,1.804380986885374
3.687093792140216,1.9860309326909,2.7429650689492724,4.862819980597689,4.312209700179928,4.058824283357646,1.3374260163609448,1.8030223436933297
3.6872134026557006,1.9847207978001495,2.7424726722630166,4.856957925737042,4.314299869763642,4.052740620677278,1.3377243961552647,1.801718129792345
3.687358218674212,1.9835271859938342,2.7419436445734577,4.8510621979480195,4.316467258332621,4.046530214371091,1.3381050772106686,1.8004687976335185
3.6875301881971474,1.9824502596311109,2.7413780741788933,4.845135503357956,4.318711777536902,4.040195760676287,1.338566260164052,1.7992747696999105
3.68773134913051,1.9814901432116936,2.740776062409584,4.839180655461979,4.321033266865311,4.033739973877823,1.339106086269316,1.7981364372439592
